t,y,y1,y2
0.0191023000000001,0.185546875,0.185546875,0.185546875
0.0253939999999999,0.185546875,0.185546875,0.185546875
0.0313037999999999,0.185546875,0.185546875,0.185546875
0.0371345999999999,0.185546875,0.185546875,0.185546875
0.0411446999999998,0.185546875,0.185546875,0.185546875
0.0465111999999999,0.185546875,0.185546875,0.185546875
0.0520382000000001,92.9052734375,86.4111328125,82.9931640625
0.0535538,-106.0009765625,-66.0498046875,-20.8447265625
0.0553108999999998,-107.4169921875,-61.8994140625,-14.4970703125
0.0570936,-108.2470703125,-57.6025390625,-10.0048828125
0.0584650999999998,-109.1259765625,-53.5009765625,-7.8564453125
0.0603514999999999,-109.5654296875,-51.5966796875,-8.3935546875
0.0621999,-107.1240234375,-51.8896484375,-11.6162109375
0.0633401,-103.3642578125,-52.6220703125,-14.7412109375
0.0647818999999998,-101.4111328125,-53.5498046875,-17.0849609375
0.0680945999999998,-100.1416015625,-55.2099609375,-19.0380859375
0.069849,-97.7001953125,-56.3818359375,-21.8212890625
0.0713881000000001,-96.3818359375,-57.5537109375,-22.9931640625
0.0728675999999999,-94.2822265625,-59.0673828125,-26.3134765625
0.0742232,-93.1103515625,-60.6787109375,-28.9990234375
0.0754712999999998,-92.5732421875,-62.9736328125,-31.5380859375
0.0767467000000002,-92.6220703125,-64.2431640625,-34.3212890625
0.0786907999999999,-92.2314453125,-66.0009765625,-37.3486328125
0.0798366000000001,-91.5966796875,-67.6611328125,-39.7412109375
0.0814311000000001,-91.4013671875,-69.6630859375,-41.8408203125
0.0831366999999998,-92.0361328125,-70.9814453125,-44.4775390625
0.0849891,-93.3056640625,-72.8369140625,-47.1142578125
0.0862579000000001,-93.2080078125,-75.0341796875,-48.6767578125
0.0916912000000001,-94.3310546875,-76.6943359375,-50.8740234375
0.0932073,-94.9169921875,-77.3779296875,-52.8271484375
0.0943201999999999,-95.9912109375,-78.9404296875,-54.9267578125
0.096063,-97.1142578125,-80.4541015625,-56.6845703125
0.0973666999999998,-97.9443359375,-82.9443359375,-59.3212890625
0.0984935999999998,-98.9697265625,-84.5068359375,-60.8837890625
0.1017851,-100.2392578125,-84.0185546875,-59.4189453125
0.1029425,-100.0927734375,-79.2822265625,-51.1181640625
0.1046891,-101.6552734375,-74.3017578125,-38.2763671875
0.1063735,-103.0224609375,-69.9072265625,-26.6552734375
0.1074978,-103.8037109375,-65.2685546875,-18.1103515625
0.1095426,-104.6337890625,-61.1181640625,-10.6884765625
0.1107666,-105.8056640625,-57.1630859375,-6.2939453125
0.1125457,-106.6357421875,-53.1591796875,-3.6083984375
0.1142403,-107.6611328125,-49.6923828125,-4.3408203125
0.1153456,-106.0986328125,-51.6943359375,-7.8564453125
0.118078,-101.9482421875,-51.8408203125,-11.8115234375
0.1192788,-100.4345703125,-50.9619140625,-15.2294921875
0.1212338,-98.5791015625,-53.5498046875,-16.7919921875
0.1225552,-96.8212890625,-54.3310546875,-19.1357421875
0.1241465,-95.6982421875,-54.8193359375,-22.1142578125
0.1259255,-93.2568359375,-56.3330078125,-24.9462890625
0.1270733,-91.9384765625,-58.0908203125,-28.1201171875
0.1288134,-91.7431640625,-60.2392578125,-30.9033203125
0.1303107,-91.7919921875,-61.8994140625,-34.0283203125
0.1314505,-91.7919921875,-63.5107421875,-35.9326171875
0.1339558,-91.7919921875,-65.4150390625,-39.0576171875
0.1352306,-91.8408203125,-67.2216796875,-41.1083984375
0.1364354,-92.3291015625,-67.9541015625,-43.5986328125
0.1381723,-93.2568359375,-69.7119140625,-46.1376953125
0.1396249,-93.9892578125,-71.5673828125,-48.0908203125
0.1407483,-94.2333984375,-71.9580078125,-50.8251953125
0.1425624,-95.2587890625,-72.8857421875,-52.4365234375
0.1437195,-96.1865234375,-74.3017578125,-55.2685546875
0.1447448,-97.1630859375,-75.7666015625,-57.4169921875
0.1458574,-97.7978515625,-77.8173828125,-59.0771484375
0.1472179,-98.9697265625,-79.6728515625,-61.4697265625
0.148259,-100.4833984375,-79.0380859375,-59.4189453125
0.1492892,-101.3623046875,-74.6923828125,-51.2158203125
0.150564,-102.9248046875,-73.5693359375,-38.9599609375
0.1515899,-103.1201171875,-70.7861328125,-26.4111328125
0.1526122,-104.5849609375,-66.5380859375,-16.7919921875
0.1536504,-106.1474609375,-62.4853515625,-10.4931640625
0.1546713,-106.4404296875,-56.8212890625,-6.2939453125
0.1556787,-108.1982421875,-53.8427734375,-2.2412109375
0.1567671,-109.0283203125,-50.8154296875,-2.9248046875
0.1577854,-108.1982421875,-50.3759765625,-6.9287109375
0.1589694,-104.1943359375,-50.1806640625,-10.4931640625
0.1603074,-101.2158203125,-50.2294921875,-13.4228515625
0.1614257,-99.0673828125,-50.1806640625,-15.5712890625
0.1624614,-97.4560546875,-52.9150390625,-17.4267578125
0.1635107,-95.9912109375,-53.4033203125,-20.2587890625
0.1645507,-94.3798828125,-53.9892578125,-23.4814453125
0.1655604,-93.5009765625,-55.5517578125,-26.2646484375
0.1666556,-92.3291015625,-58.7255859375,-28.5107421875
0.1676773,-93.5498046875,-61.8017578125,-32.7587890625
0.1686833,-93.5009765625,-62.9248046875,-35.3466796875
0.1697353,-93.4033203125,-64.7314453125,-37.4951171875
0.1707716,-94.0869140625,-66.5869140625,-39.6923828125
0.1717712,-93.8916015625,-68.3447265625,-42.6708984375
0.1727897,-94.5263671875,-70.0537109375,-44.5263671875
0.1738187,-95.2587890625,-71.3720703125,-47.5537109375
0.1748504,-95.6982421875,-73.6181640625,-50.0439453125
0.1758681,-95.9423828125,-74.2041015625,-51.7041015625
0.1768866,-97.7978515625,-75.2294921875,-54.5361328125
0.1782454,-98.8720703125,-76.7431640625,-56.5869140625
0.1792747,-99.1162109375,-78.5009765625,-58.9794921875
0.1802923,-99.8974609375,-80.4052734375,-60.6396484375
0.1813239,-101.6064453125,-79.5263671875,-59.4677734375
0.1823409,-102.8759765625,-75.1318359375,-50.7275390625
0.1834355,-103.7548828125,-70.9814453125,-38.3251953125
0.1844818,-105.0732421875,-66.5869140625,-25.9716796875
0.1855066,-105.4150390625,-62.3876953125,-17.0361328125
0.1865284,-106.6357421875,-57.6513671875,-9.8095703125
0.1875795,-108.4423828125,-54.5263671875,-4.4384765625
0.1887265,-109.3701171875,-50.2294921875,-2.4853515625
0.1899725,-109.8095703125,-47.9833984375,-1.9482421875
0.1910347,-109.4189453125,-47.2509765625,-5.7080078125
0.1920439,-105.7080078125,-47.5927734375,-8.6865234375
0.1933087,-102.8271484375,-47.2998046875,-11.4208984375
0.1943425,-100.5810546875,-48.3740234375,-13.5693359375
0.1955155,-99.4091796875,-50.5224609375,-15.4248046875
0.1965902,-97.6513671875,-51.2060546875,-18.0126953125
0.1976764,-95.7470703125,-52.7685546875,-21.0400390625
0.1988328,-94.7705078125,-54.2333984375,-23.6767578125
0.1998492,-93.3544921875,-56.6748046875,-26.3623046875
0.2011242,-93.7939453125,-58.1884765625,-29.8291015625
0.2021414,-94.0869140625,-60.9716796875,-32.1728515625
0.2033396,-93.7939453125,-61.9482421875,-33.8818359375
0.2044326,-93.7451171875,-63.6572265625,-36.9091796875
0.2055302,-93.9892578125,-65.2685546875,-38.9111328125
0.2068923,-94.6728515625,-66.9287109375,-41.0595703125
0.2080499,-95.0634765625,-68.7353515625,-43.0615234375
0.2091598,-96.3330078125,-70.1513671875,-45.6494140625
0.2101724,-96.4306640625,-71.8603515625,-47.0166015625
0.2112029,-97.2607421875,-72.7880859375,-49.1162109375
0.2123831,-98.2373046875,-74.8876953125,-51.6064453125
0.2134072,-99.2626953125,-76.9873046875,-53.1689453125
0.2145967,-100.4833984375,-78.4033203125,-54.5361328125
0.2156764,-101.2158203125,-76.9384765625,-51.6064453125
0.2167536,-102.1435546875,-71.8115234375,-41.2548828125
0.2179157,-103.2666015625,-67.2705078125,-27.6318359375
0.2189283,-104.2919921875,-65.0244140625,-16.2548828125
0.2201306,-105.4638671875,-59.9951171875,-7.7587890625
0.2213266,-106.0009765625,-56.1865234375,-1.4599609375
0.2224693,-107.3193359375,-50.5712890625,3.0810546875
0.2236177,-108.1982421875,-47.8369140625,5.3271484375
0.2247089,-109.0771484375,-45.7373046875,3.7158203125
0.2258654,-107.8076171875,-45.5908203125,-0.4345703125
0.2268805,-103.8037109375,-45.3466796875,-2.9736328125
0.2280698,-100.0439453125,-45.3955078125,-4.8291015625
0.2290868,-99.0673828125,-47.0556640625,-6.9775390625
0.2302792,-96.5283203125,-46.5185546875,-8.4423828125
0.2313586,-94.9169921875,-48.0810546875,-11.3720703125
0.2324426,-93.5498046875,-49.0087890625,-14.2529296875
0.2336121,-92.3779296875,-51.3525390625,-16.2060546875
0.2346308,-90.7666015625,-54.0869140625,-19.8193359375
0.2358459,-91.3525390625,-56.2841796875,-21.9189453125
0.2368924,-91.3525390625,-57.6025390625,-24.6044921875
0.2382224,-91.3525390625,-59.2626953125,-27.1923828125
0.239401,-91.5478515625,-61.2646484375,-29.4873046875
0.2405066,-91.5478515625,-63.6083984375,-31.4892578125
0.2416373,-92.2314453125,-65.2197265625,-33.2470703125
0.24268,-92.3779296875,-67.3193359375,-35.0048828125
0.2439143,-92.9638671875,-67.4658203125,-37.5927734375
0.2449265,-93.3056640625,-67.8076171875,-39.2041015625
0.2461349,-94.3310546875,-70.2001953125,-41.7919921875
0.2471802,-95.1123046875,-71.9091796875,-43.3544921875
0.2482931,-96.4306640625,-73.0322265625,-45.2587890625
0.2494008,-97.0166015625,-72.0068359375,-43.6962890625
0.2506486,-97.9443359375,-67.5146484375,-34.4189453125
0.251811,-99.0673828125,-63.8037109375,-21.1865234375
0.2528459,-99.8974609375,-59.8486328125,-9.6630859375
0.2540649,-100.8740234375,-55.6005859375,-0.2392578125
0.2550898,-101.7529296875,-51.7431640625,6.5966796875
0.2562224,-103.1689453125,-47.6904296875,11.0888671875
0.257369,-103.9501953125,-43.5888671875,13.7255859375
0.2584399,-105.2685546875,-41.2939453125,13.4814453125
0.2595564,-105.2685546875,-41.7822265625,9.6728515625
0.2606189,-101.8994140625,-41.7822265625,6.4501953125
0.2616278,-97.7001953125,-42.1728515625,4.0576171875
0.2628205,-95.1611328125,-43.5888671875,2.0068359375
0.2638496,-93.7939453125,-45.2978515625,0.0537109375
0.2650608,-91.9384765625,-47.0068359375,-2.1435546875
0.2661402,-89.8388671875,-48.1787109375,-5.1708984375
0.2674159,-87.9345703125,-50.5224609375,-7.3681640625
0.2686209,-87.1044921875,-54.6728515625,-10.9326171875
0.2696499,-86.8115234375,-58.8232421875,-13.2275390625
0.2707098,-86.8603515625,-62.5830078125,-15.6689453125
0.2717264,-86.3232421875,-66.8310546875,-18.4033203125
0.2727835,-86.2255859375,-71.0302734375,-20.4541015625
0.2738207,-86.2744140625,-75.7177734375,-22.4072265625
0.2748414,-86.5185546875,-78.4033203125,-24.3115234375
0.2759145,-87.0068359375,-80.5029296875,-25.9228515625
0.2769338,-87.5439453125,-84.1162109375,-28.0224609375
0.2779855,-87.8857421875,-86.5087890625,-30.6103515625
0.2791874,-88.0810546875,-89.3408203125,-32.5634765625
0.2802076,-88.6181640625,-91.5380859375,-35.1025390625
0.2812559,-88.9599609375,-92.1728515625,-35.2001953125
0.2823933,-89.2529296875,-90.1708984375,-30.9033203125
0.2835802,-89.9853515625,-85.4833984375,-19.5263671875
0.2846298,-89.8388671875,-82.1630859375,-7.0263671875
0.2856639,-91.1083984375,-80.4052734375,1.0302734375
0.286745,-91.1572265625,-78.9404296875,7.0849609375
0.287806,-91.9873046875,-77.4267578125,10.6494140625
0.2890524,-92.8173828125,-73.9111328125,14.4091796875
0.2900624,-94.4287109375,-72.2509765625,14.3603515625
0.2913252,-94.5751953125,-72.9345703125,11.7724609375
0.2923637,-93.7939453125,-74.3994140625,8.6962890625
0.2935282,-90.9619140625,-75.0341796875,6.5966796875
0.2946037,-87.7392578125,-76.3525390625,6.2060546875
0.2957024,-85.9814453125,-76.9873046875,3.6181640625
0.2968661,-84.3701171875,-78.7451171875,1.6650390625
0.2980387,-81.9287109375,-79.5263671875,-0.6298828125
0.2994478,-79.9755859375,-80.1611328125,-2.1923828125
0.3004788,-78.4130859375,-80.5029296875,-4.2431640625
0.3016461,-77.7783203125,-80.6005859375,-6.8310546875
0.3026831,-77.1435546875,-80.2587890625,-8.2470703125
0.3037011,-76.6064453125,-80.0634765625,-10.0048828125
0.3047566,-75.9228515625,-80.9912109375,-11.8603515625
0.3057689,-75.3369140625,-81.0888671875,-13.0810546875
0.3068246,-75.6787109375,-80.8447265625,-14.6435546875
0.3078546,-75.7763671875,-80.9423828125,-16.4013671875
0.3088783,-75.7763671875,-82.5048828125,-18.1103515625
0.3099339,-76.6064453125,-82.8955078125,-20.3564453125
0.3109611,-77.8271484375,-83.6279296875,-22.3583984375
0.3123071,-78.3642578125,-80.7958984375,-21.2841796875
0.3133391,-79.3408203125,-73.5693359375,-14.3994140625
0.3144019,-80.3173828125,-65.8544921875,-1.9970703125
0.3154275,-82.1240234375,-61.1181640625,9.4775390625
0.3164394,-82.9052734375,-57.2119140625,17.4365234375
0.3174959,-84.3701171875,-52.5244140625,23.5888671875
0.3185112,-85.4931640625,-48.6669921875,27.5439453125
0.3195888,-87.2021484375,-46.1767578125,29.5947265625
0.3206948,-89.1064453125,-44.1259765625,28.5205078125
0.3217222,-90.3759765625,-45.1025390625,24.3701171875
0.3227656,-90.3271484375,-44.0771484375,20.9033203125
0.3237869,-86.6650390625,-44.4189453125,17.9248046875
0.3248999,-85.2001953125,-45.5419921875,16.6552734375
0.325913,-83.7353515625,-46.3232421875,13.8232421875
0.3269655,-82.7587890625,-47.2998046875,10.9912109375
0.3282941,-81.2939453125,-48.2275390625,8.2568359375
0.3294036,-79.5849609375,-49.5458984375,5.4736328125
0.3307387,-78.6572265625,-51.5966796875,2.7880859375
0.3322011,-78.7548828125,-52.7685546875,-0.0927734375
0.3335498,-79.0966796875,-54.2333984375,-1.8994140625
0.3348465,-79.4873046875,-56.6748046875,-4.9267578125
0.3359949,-78.9501953125,-58.6767578125,-6.9287109375
0.3370184,-79.4873046875,-60.3369140625,-8.2470703125
0.3381178,-80.5126953125,-62.5341796875,-10.3466796875
0.3392518,-81.2451171875,-64.1455078125,-12.0068359375
0.3404498,-82.5146484375,-65.9521484375,-14.3017578125
0.3416608,-83.2470703125,-67.1728515625,-15.4736328125
0.3426788,-84.2724609375,-69.5166015625,-16.7919921875
0.3437261,-85.3955078125,-66.7822265625,-12.1044921875
0.3448168,-86.2255859375,-61.2158203125,0.0048828125
0.3459673,-87.6416015625,-56.3818359375,14.3603515625
0.3472149,-88.2275390625,-50.7177734375,26.4697265625
0.3485281,-89.5458984375,-46.4697265625,36.3330078125
0.349565,-89.9853515625,-41.5869140625,42.9248046875
0.3506342,-91.3037109375,-37.1435546875,47.9541015625
0.3516947,-92.4755859375,-33.3349609375,51.7138671875
0.3527056,-93.4521484375,-30.4541015625,50.9326171875
0.3537549,-94.1357421875,-31.9677734375,46.0009765625
0.354804,-91.5478515625,-31.7236328125,41.8505859375
0.3558218,-87.6416015625,-32.4560546875,38.7255859375
0.3568864,-84.9072265625,-33.7744140625,35.9912109375
0.3579081,-82.9541015625,-36.0693359375,33.5498046875
0.3593248,-80.9033203125,-37.9248046875,30.1318359375
0.3604279,-78.7548828125,-40.0732421875,28.0322265625
0.3614901,-76.1181640625,-42.0263671875,24.4677734375
0.362617,-74.3603515625,-44.6142578125,21.0009765625
0.3637779,-73.1884765625,-46.4697265625,18.0224609375
0.3648221,-73.7255859375,-49.2041015625,14.9462890625
0.3658331,-72.9443359375,-51.1083984375,12.7978515625
0.3668744,-72.4560546875,-52.8173828125,9.4287109375
0.3678921,-73.1396484375,-54.8681640625,8.0126953125
0.3691034,-72.6025390625,-57.0654296875,5.5712890625
0.3702357,-73.0419921875,-57.9931640625,3.4228515625
0.3712655,-74.0185546875,-60.3857421875,1.2255859375
0.372305,-74.5556640625,-63.2177734375,-1.3134765625
0.3733265,-75.4833984375,-64.3896484375,-2.6318359375
0.3745418,-76.3623046875,-64.1455078125,-0.4833984375
0.3755537,-76.8017578125,-59.9951171875,8.3544921875
0.3765742,-77.9248046875,-55.0634765625,22.6123046875
0.3776471,-79.1455078125,-50.8154296875,36.0400390625
0.3786555,-80.3662109375,-45.8349609375,46.2939453125
0.3797301,-80.8056640625,-40.7568359375,53.3251953125
0.3807934,-82.2705078125,-35.9716796875,58.1591796875
0.3818019,-83.1494140625,-31.4794921875,61.3818359375
0.3829699,-84.6142578125,-28.1103515625,59.8681640625
0.3840239,-84.9560546875,-27.3779296875,54.9853515625
0.3850548,-84.3212890625,-28.8427734375,49.2724609375
0.3861299,-81.0498046875,-28.0615234375,45.0732421875
0.3872279,-77.5341796875,-29.1357421875,42.7294921875
0.3887086,-75.9716796875,-31.7724609375,38.9208984375
0.3898814,-74.0673828125,-32.4560546875,35.5517578125
0.390923,-71.2841796875,-34.9462890625,31.9873046875
0.391945,-69.0869140625,-37.8759765625,28.8623046875
0.3930056,-66.7431640625,-40.4638671875,24.7119140625
0.3940691,-65.2783203125,-43.1005859375,21.2451171875
0.3951292,-65.2783203125,-45.2978515625,18.9013671875
0.3962139,-64.7412109375,-47.3486328125,15.3369140625
0.3976278,-64.6923828125,-49.4970703125,11.2353515625
0.3989067,-64.8388671875,-51.6455078125,9.0380859375
0.4008566,-65.1806640625,-54.2333984375,5.6689453125
0.4022817,-65.7666015625,-55.3076171875,3.4228515625
0.4034549,-66.7431640625,-57.5537109375,-0.2880859375
0.4045389,-67.8173828125,-58.7255859375,-2.2412109375
0.4055795,-68.3056640625,-60.5322265625,-4.8779296875
0.4066261,-70.1123046875,-62.9248046875,-8.1494140625
0.4076599,-70.8447265625,-65.3662109375,-11.3232421875
0.4087081,-72.2119140625,-67.0751953125,-13.0810546875
0.4097605,-72.7001953125,-66.8798828125,-9.8583984375
0.4108152,-73.8720703125,-62.0458984375,-0.3857421875
0.4118649,-75.0927734375,-59.5068359375,13.5791015625
0.4129178,-76.2646484375,-56.6748046875,25.2490234375
0.4140266,-77.8759765625,-52.8662109375,34.7705078125
0.4164608,-78.9501953125,-47.9345703125,42.3388671875
0.4181341,-80.0732421875,-43.8330078125,46.9775390625
0.4194959,-81.3427734375,-40.3173828125,48.8818359375
0.4206511,-82.5146484375,-37.4365234375,47.6611328125
0.4216892,-83.5400390625,-37.9248046875,41.9482421875
0.4227568,-82.7587890625,-38.9501953125,36.9189453125
0.4238016,-79.1455078125,-38.3154296875,33.3544921875
0.4248084,-75.8740234375,-39.7314453125,30.1318359375
0.4258599,-73.4814453125,-41.8798828125,27.0556640625
0.4268692,-71.5283203125,-43.9794921875,23.2470703125
0.4279316,-68.5498046875,-45.9326171875,20.3662109375
0.4289698,-65.8154296875,-48.5205078125,16.5087890625
0.4301412,-64.1064453125,-51.2548828125,13.5302734375
0.4313493,-62.2998046875,-54.3798828125,9.5751953125
0.4323673,-61.5673828125,-56.1865234375,6.9384765625
0.4334723,-61.6162109375,-58.3837890625,3.7646484375
0.4344919,-60.9814453125,-61.0693359375,0.6396484375
0.4356322,-61.9580078125,-63.3154296875,-2.1923828125
0.4366907,-61.9580078125,-65.2685546875,-5.0732421875
0.4377031,-62.1533203125,-67.4169921875,-7.8076171875
0.4387505,-63.7158203125,-68.7841796875,-11.0791015625
0.4397631,-63.9599609375,-70.0048828125,-12.7880859375
0.440868,-64.1552734375,-71.3232421875,-15.5712890625
0.4419009,-65.4248046875,-71.9580078125,-17.9150390625
0.4429041,-66.5966796875,-74.3505859375,-20.5029296875
0.4439648,-67.8173828125,-76.2548828125,-23.3837890625
0.4449756,-68.7939453125,-76.6455078125,-25.4345703125
0.4462142,-70.2099609375,-75.6689453125,-23.9208984375
0.4473295,-70.9912109375,-70.4931640625,-15.6689453125
0.4487433,-72.4072265625,-65.6591796875,-3.5107421875
0.4501103,-73.9697265625,-60.4833984375,7.9638671875
0.4513514,-75.0439453125,-55.1611328125,17.8271484375
0.4524756,-76.5576171875,-48.2275390625,25.3466796875
0.4537086,-77.4853515625,-43.2958984375,30.3759765625
0.4548565,-79.9755859375,-37.8271484375,33.4521484375
0.4560069,-80.8056640625,-35.2392578125,32.1337890625
0.4570755,-81.8798828125,-35.7763671875,28.5205078125
0.4581677,-82.6123046875,-34.7998046875,24.3212890625
0.459499,-79.5361328125,-34.6533203125,20.7080078125
0.4605618,-76.1669921875,-35.4345703125,18.5107421875
0.4616581,-73.8232421875,-36.9970703125,15.6298828125
0.4626855,-72.3095703125,-37.8271484375,12.7978515625
0.463884,-70.9423828125,-38.8525390625,9.8681640625
0.4650113,-68.7451171875,-40.5615234375,7.0361328125
0.4660916,-67.3291015625,-43.6865234375,3.4228515625
0.4671715,-66.7919921875,-46.3232421875,0.1025390625
0.4682833,-67.1337890625,-48.3251953125,-2.9736328125
0.4694438,-67.3779296875,-49.2529296875,-6.0009765625
0.4707047,-67.0849609375,-51.0107421875,-7.9052734375
0.4718744,-67.9638671875,-52.8173828125,-11.0791015625
0.4729917,-68.5986328125,-54.3310546875,-13.1787109375
0.4740936,-69.6728515625,-55.7470703125,-15.9619140625
0.4752115,-70.6982421875,-56.8212890625,-18.1103515625
0.4762538,-71.6259765625,-59.0673828125,-20.9423828125
0.4773037,-73.1396484375,-60.1416015625,-23.2861328125
0.4787321,-74.0673828125,-62.2900390625,-25.6787109375
0.4799459,-75.4833984375,-63.0224609375,-27.6806640625
0.4810229,-76.0693359375,-64.8779296875,-29.2431640625
0.4821217,-78.2177734375,-66.6845703125,-31.6357421875
0.4831728,-79.3408203125,-64.9267578125,-29.2919921875
0.4842962,-80.7568359375,-59.6044921875,-21.4306640625
0.4854221,-82.0751953125,-54.8681640625,-8.9794921875
0.486521,-83.5400390625,-50.3271484375,3.4716796875
0.4878316,-84.2724609375,-45.9814453125,13.7255859375
0.4888679,-85.3466796875,-40.9033203125,22.0751953125
0.4899311,-87.0556640625,-36.6552734375,28.0322265625
0.4910284,-88.5693359375,-32.5048828125,32.1826171875
0.4924968,-89.8388671875,-29.5263671875,32.4755859375
0.4936386,-91.6455078125,-30.0146484375,28.3740234375
0.494738,-91.5966796875,-30.6005859375,24.4677734375
0.4958396,-88.9599609375,-30.0146484375,21.1474609375
0.4968947,-84.3212890625,-30.5517578125,18.6572265625
0.4979476,-81.5380859375,-31.3818359375,16.1181640625
0.499004,-79.5361328125,-32.3583984375,13.2373046875
0.5001452,-77.3876953125,-33.7255859375,10.6005859375
0.5012299,-76.0205078125,-35.4345703125,6.4501953125
0.5022845,-73.6767578125,-37.3388671875,4.6435546875
0.5033175,-71.7724609375,-39.8779296875,1.8603515625
0.5043832,-71.0400390625,-42.0751953125,-1.5576171875
0.5054348,-72.3583984375,-43.1982421875,-4.4384765625
0.5065034,-72.2607421875,-44.9560546875,-7.1240234375
0.5087566,-71.9677734375,-47.1044921875,-8.9306640625
0.510123,-72.5537109375,-49.4970703125,-10.9814453125
0.5111787,-73.6767578125,-52.5244140625,-13.5205078125
0.5122296,-74.1650390625,-54.1357421875,-15.9619140625
0.5132782,-75.0439453125,-56.7236328125,-17.8662109375
0.5142916,-75.8251953125,-57.8466796875,-19.8193359375
0.5153034,-77.0947265625,-59.3603515625,-21.7724609375
0.5162997,-78.2177734375,-61.4599609375,-24.7021484375
0.5172951,-78.9990234375,-63.4619140625,-26.8505859375
0.5183004,-80.9033203125,-64.9267578125,-28.3154296875
0.5192969,-81.5869140625,-63.3642578125,-27.4853515625
0.5205519,-82.7099609375,-58.5302734375,-19.4287109375
0.5218146,-83.8330078125,-52.8662109375,-7.1728515625
0.5228786,-84.6630859375,-48.6181640625,5.1318359375
0.5239747,-86.1279296875,-43.6376953125,15.6787109375
0.5250328,-87.0556640625,-39.1943359375,24.0771484375
0.5260625,-89.0087890625,-34.6044921875,29.7900390625
0.527168,-89.6923828125,-31.4306640625,32.4755859375
0.5282293,-91.5966796875,-29.0869140625,33.2568359375
0.5293698,-92.1826171875,-28.8916015625,30.5712890625
0.5304315,-93.5009765625,-30.0146484375,26.7626953125
0.5315568,-91.2548828125,-29.0869140625,23.3935546875
0.5327035,-85.9814453125,-31.8212890625,21.4404296875
0.5338526,-83.1005859375,-33.2373046875,18.9501953125
0.5349987,-80.4150390625,-34.7509765625,16.2646484375
0.5361845,-79.1943359375,-35.9716796875,13.2861328125
0.5372624,-76.4111328125,-38.2177734375,10.6005859375
0.5386758,-75.2880859375,-40.4150390625,7.8173828125
0.540059,-72.8955078125,-42.9541015625,4.2041015625
0.5411149,-72.2607421875,-45.2978515625,2.1533203125
0.5421512,-73.2373046875,-48.7646484375,-0.7763671875
0.5431826,-72.3583984375,-50.7666015625,-3.9501953125
0.544225,-72.2119140625,-53.8916015625,-5.1708984375
0.5452376,-72.4560546875,-57.8955078125,-8.0029296875
0.546288,-73.8720703125,-59.9462890625,-10.7861328125
0.5473234,-74.1650390625,-62.7783203125,-12.2998046875
0.5483725,-74.6533203125,-65.8544921875,-14.7412109375
0.5496426,-76.2646484375,-68.1982421875,-16.8896484375
0.550692,-76.2158203125,-69.6630859375,-19.6728515625
0.5517473,-77.5830078125,-72.4462890625,-21.4306640625
0.5527984,-78.4619140625,-75.3271484375,-23.4326171875
0.5540243,-78.9013671875,-77.2314453125,-24.9951171875
0.5556415,-80.1220703125,-73.9111328125,-22.3583984375
0.5567146,-81.1474609375,-68.2958984375,-11.9091796875
0.5577495,-82.4658203125,-64.5361328125,0.4443359375
0.5587885,-83.0029296875,-60.5810546875,10.9423828125
0.5598293,-84.2236328125,-56.2841796875,19.3408203125
0.5609066,-85.0537109375,-51.5966796875,25.4443359375
0.562062,-86.0791015625,-49.0576171875,29.4482421875
0.5631542,-87.6904296875,-45.9814453125,31.4013671875
0.5643634,-88.6669921875,-45.4931640625,30.1806640625
0.5653673,-89.5458984375,-45.7373046875,26.1767578125
0.566411,-90.2294921875,-46.1767578125,23.6865234375
0.5675146,-88.1787109375,-46.4208984375,21.0498046875
0.5685151,-83.0517578125,-47.9345703125,19.3408203125
0.5697669,-79.9755859375,-48.9599609375,17.2412109375
0.5709124,-77.9248046875,-49.4482421875,14.7998046875
0.5719178,-76.0693359375,-50.7666015625,12.0166015625
0.5729234,-73.8232421875,-52.3779296875,10.0634765625
0.5740317,-72.5537109375,-52.6708984375,6.5966796875
0.5750332,-70.5517578125,-54.9658203125,4.7412109375
0.5760314,-71.2353515625,-55.6494140625,1.5185546875
0.5771471,-71.2353515625,-57.4560546875,-0.4345703125
0.5781508,-70.6494140625,-58.1396484375,-3.3154296875
0.5791539,-70.6005859375,-60.7763671875,-5.4638671875
0.5803043,-71.0888671875,-61.3134765625,-7.3681640625
0.5813085,-71.6748046875,-63.8037109375,-9.4189453125
0.5825653,-71.7724609375,-65.1220703125,-10.5908203125
0.5837457,-73.3837890625,-66.5869140625,-12.5439453125
0.5847492,-73.7744140625,-68.0517578125,-14.6435546875
0.5857643,-74.5556640625,-70.3466796875,-17.2802734375
0.5869059,-75.5810546875,-71.4208984375,-19.1845703125
0.5879132,-76.6552734375,-70.6884765625,-17.5244140625
0.5889174,-77.9736328125,-65.5126953125,-10.4931640625
0.5900291,-78.9990234375,-60.2392578125,1.3720703125
0.5910997,-80.7568359375,-56.8701171875,12.6513671875
0.592109,-81.8310546875,-53.4033203125,22.6611328125
0.5931386,-82.5634765625,-48.1787109375,29.7412109375
0.594243,-83.9306640625,-44.5654296875,34.6240234375
0.5952569,-84.8095703125,-40.1220703125,37.0654296875
0.5962603,-86.5673828125,-38.4619140625,36.3330078125
0.5973651,-88.3740234375,-38.8037109375,34.0380859375
0.5983787,-88.6669921875,-37.3876953125,30.1318359375
0.5997583,-88.7158203125,-37.6806640625,27.1044921875
0.6009748,-84.8095703125,-37.8271484375,24.5654296875
0.6022806,-80.5615234375,-38.6572265625,23.9306640625
0.6034337,-78.0224609375,-38.6083984375,21.5380859375
0.6044872,-76.2646484375,-40.5615234375,18.7548828125
0.6054941,-74.8974609375,-41.3427734375,15.7275390625
0.6067606,-72.7978515625,-44.0283203125,13.6767578125
0.6078262,-71.4306640625,-45.5908203125,11.1376953125
0.6088395,-70.8447265625,-47.0068359375,7.5732421875
0.609937,-71.1376953125,-48.1298828125,6.1083984375
0.6112089,-72.0166015625,-50.0341796875,3.8134765625
0.6122162,-71.5771484375,-51.9873046875,1.0791015625
0.613305,-71.4306640625,-54.3798828125,-0.8251953125
0.6145101,-72.4072265625,-55.3564453125,-2.9248046875
0.6158676,-73.1884765625,-56.5283203125,-4.8291015625
0.6169435,-74.5068359375,-58.3349609375,-6.8798828125
0.6179493,-75.2392578125,-61.1181640625,-9.1259765625
0.6538733,-75.5810546875,-62.3388671875,-11.4697265625
0.6776135,-77.2412109375,-62.7294921875,-13.0810546875
0.7096555,-78.0712890625,-59.8486328125,-8.3935546875
0.7373854,-78.4130859375,-54.4775390625,1.8115234375
0.7666052,-79.8779296875,-50.3271484375,14.4091796875
0.8005072,-80.5615234375,-45.9326171875,24.6142578125
0.8270103,-82.2705078125,-42.2705078125,32.8662109375
0.8617894,-82.9052734375,-37.4853515625,39.1650390625
0.8906241,-84.2724609375,-33.9697265625,43.1689453125
0.9189992,-85.1513671875,-30.2587890625,44.8779296875
0.9528584,-86.2744140625,-28.3544921875,43.3154296875
0.9815779,-87.5927734375,-28.7939453125,39.1162109375
1.0083247,-88.1787109375,-28.6962890625,36.1865234375
1.0414401,-86.7138671875,-28.8427734375,34.0380859375
1.0695202,-81.9775390625,-30.1611328125,31.9873046875
1.0976407,-78.1201171875,-30.2587890625,29.8388671875
1.1382188,-76.0205078125,-31.1865234375,26.9091796875
1.1590703,-74.7021484375,-32.7978515625,23.9794921875
1.1927701,-72.5048828125,-35.1416015625,22.0263671875
1.2207564,-70.7470703125,-36.4599609375,18.7060546875
1.2508507,-69.3310546875,-38.7060546875,16.4111328125
1.2819513,-68.7451171875,-40.8544921875,14.3603515625
1.3106408,-69.3310546875,-41.9775390625,11.6259765625
1.3401916,-69.3798828125,-43.2958984375,9.8193359375
1.3821626,-68.5986328125,-45.4931640625,7.7685546875
1.4022116,-69.0869140625,-46.4697265625,6.3037109375
1.4352321,-68.9892578125,-47.8369140625,4.2529296875
1.4625624,-70.3564453125,-49.2529296875,2.0556640625
1.4918107,-71.1865234375,-51.8408203125,0.0048828125
1.5254192,-72.2607421875,-53.7451171875,-1.8505859375
1.5524985,-72.7978515625,-55.2099609375,-2.3876953125
1.5822404,-73.2861328125,-52.3779296875,2.3486328125
1.6157202,-74.3603515625,-47.4462890625,14.0673828125
1.644603,-75.3369140625,-44.7119140625,26.9091796875
1.6745646,-75.6787109375,-41.0009765625,37.0654296875
1.7040175,-76.4599609375,-36.6552734375,44.2431640625
1.7338366,-76.8994140625,-32.4560546875,49.4189453125
1.7617764,-78.5107421875,-28.4521484375,53.3740234375
1.7956017,-79.6337890625,-25.0341796875,54.1552734375
1.8222916,-80.4150390625,-24.1064453125,50.5908203125
1.8583583,-81.3427734375,-24.5947265625,47.0751953125
1.8836453,-81.7333984375,-23.0810546875,43.9501953125
1.9127635,-80.7080078125,-23.5693359375,42.8271484375
1.949934,-76.3623046875,-24.2529296875,40.3369140625
1.9739971,-72.4560546875,-24.9365234375,37.7978515625
2.0095391,-70.5029296875,-26.3037109375,34.9658203125
2.036298,-68.1591796875,-28.0126953125,32.7197265625
2.0638734,-66.4013671875,-30.6005859375,29.7412109375
2.091345,-64.3994140625,-31.9677734375,27.2998046875
2.1277811,-62.6904296875,-34.7021484375,24.4189453125
2.153198,-61.5185546875,-36.6552734375,22.0263671875
2.1893127,-62.1044921875,-38.6572265625,18.6572265625
2.2147043,-62.0556640625,-39.9755859375,16.8017578125
2.2452978,-61.9580078125,-42.3193359375,14.4091796875
2.2789541,-62.1044921875,-43.7841796875,12.9931640625
2.307282,-61.8115234375,-45.6396484375,10.6982421875
2.3342683,-62.3974609375,-46.6650390625,8.6962890625
2.3693231,-62.9345703125,-49.4970703125,6.0595703125
2.3968463,-63.9599609375,-49.8388671875,4.0576171875
2.4313152,-64.6435546875,-49.8876953125,4.4970703125
2.4583025,-65.1806640625,-45.1025390625,11.4306640625
2.4862607,-65.8154296875,-39.8779296875,23.5400390625
2.5210414,-66.3037109375,-36.7041015625,33.8427734375
2.5489587,-66.9384765625,-32.5048828125,42.1435546875
2.5784049,-67.2802734375,-28.1103515625,48.3935546875
2.6113064,-68.8916015625,-23.6181640625,51.6162109375
2.6405247,-69.2822265625,-20.0048828125,53.4228515625
2.6675851,-70.3076171875,-18.3935546875,51.6650390625
2.7005468,-71.1376953125,-18.4912109375,47.7587890625
2.7265027,-72.7001953125,-18.0029296875,43.8037109375
2.7644985,-73.7255859375,-18.3935546875,40.9228515625
2.7914426,-71.7236328125,-18.3447265625,38.9697265625
2.8164858,-68.3056640625,-18.7353515625,35.5029296875
2.8547376,-65.7666015625,-18.7353515625,33.3544921875
2.8791935,-63.7158203125,-19.8583984375,30.0830078125
2.9093325,-61.3720703125,-21.2255859375,26.9580078125
2.9412604,-59.8583984375,-22.9833984375,24.2236328125
2.9724158,-58.1982421875,-25.1806640625,21.2939453125
3.004383,-56.5869140625,-26.1083984375,18.5107421875
3.0327616,-56.0009765625,-28.6962890625,15.1416015625
3.0621795,-56.6845703125,-30.3564453125,12.8466796875
3.0938963,-55.6591796875,-31.7724609375,10.7958984375
3.1217281,-55.7080078125,-32.8466796875,7.2314453125
3.1531732,-55.3173828125,-34.4580078125,5.4736328125
3.1818953,-56.9775390625,-34.9951171875,3.3740234375
3.212879,-57.6611328125,-36.5087890625,0.2001953125
3.2408751,-57.7099609375,-38.4130859375,-1.7041015625
3.2755451,-59.6142578125,-39.0478515625,-4.1943359375
3.3035275,-59.5654296875,-36.8994140625,-2.4853515625
3.3355325,-60.6884765625,-31.6748046875,5.3759765625
3.3636217,-62.3486328125,-26.9873046875,16.5087890625
3.3935624,-62.8369140625,-22.6904296875,26.3232421875
3.4238706,-64.5458984375,-18.2470703125,32.7685546875
3.4545219,-65.3759765625,-12.7294921875,37.9443359375
3.4815209,-66.3037109375,-8.5302734375,40.8740234375
3.5135056,-67.8662109375,-4.0380859375,42.1435546875
3.5443041,-68.8427734375,-3.3056640625,39.3603515625
3.5770247,-69.9169921875,-3.0126953125,35.0146484375
3.6055567,-71.0888671875,-2.6708984375,30.5224609375
3.6344764,-72.2119140625,-2.8662109375,28.1787109375
3.6631611,-70.3564453125,-4.3310546875,25.4443359375
3.6956728,-66.7919921875,-5.3564453125,22.4658203125
3.7247114,-64.3017578125,-7.0654296875,19.7314453125
3.7554834,-62.1533203125,-8.9697265625,16.4111328125
3.7824592,-60.2490234375,-10.2392578125,13.1884765625
3.8133413,-58.0029296875,-11.8994140625,9.8193359375
3.8454906,-55.7568359375,-14.5361328125,7.2314453125
3.874475,-54.2431640625,-15.8544921875,4.2529296875
3.9034548,-53.5595703125,-17.3681640625,1.1767578125
3.9367104,-54.1943359375,-19.0771484375,-1.3134765625
3.9650803,-53.2177734375,-21.7138671875,-3.6572265625
3.9987168,-53.7060546875,-22.9833984375,-6.4404296875
4.0245579,-53.6572265625,-24.4970703125,-8.9794921875
4.0558501,-54.2431640625,-25.8154296875,-11.9091796875
4.0895579,-54.5849609375,-27.1826171875,-13.8623046875
4.1213024,-55.9033203125,-28.8427734375,-16.9873046875
4.1493057,-56.2451171875,-30.1123046875,-18.6962890625
4.177297,-57.0751953125,-31.2841796875,-20.1611328125
4.2062682,-58.5888671875,-33.7255859375,-17.1826171875
4.2342817,-59.3212890625,-29.1357421875,-9.0771484375
4.2683042,-60.0048828125,-24.9853515625,1.5673828125
4.2983029,-61.4208984375,-21.2744140625,10.5029296875
4.3302999,-62.4951171875,-15.2197265625,17.2900390625
4.3603165,-62.7880859375,-10.6298828125,22.4169921875
4.389318,-63.9111328125,-6.4306640625,25.8349609375
4.4182555,-64.2041015625,-2.3291015625,26.6650390625
4.4502933,-65.7666015625,-1.4501953125,24.4677734375
4.4772969,-67.1337890625,-3.6962890625,20.4638671875
4.5110658,-68.1591796875,-4.1357421875,16.2646484375
4.5392584,-68.4521484375,-4.8681640625,13.6767578125
4.5732514,-66.6943359375,-6.8701171875,11.0400390625
4.5988115,-63.1298828125,-7.9443359375,8.7939453125
4.6277805,-60.7861328125,-9.8486328125,5.4736328125
4.6678194,-58.6376953125,-11.0693359375,2.2998046875
4.6873717,-56.6357421875,-14.0966796875,-0.0439453125
4.7283471,-54.3408203125,-16.9775390625,-3.1689453125
4.7518714,-52.4365234375,-19.6630859375,-5.6103515625
4.7809656,-50.2392578125,-22.6904296875,-8.3447265625
4.8076547,-48.6767578125,-25.0341796875,-11.0302734375
4.8423565,-48.4814453125,-27.4267578125,-13.0810546875
4.8693356,-47.9931640625,-30.0146484375,-15.5712890625
4.9023632,-47.3583984375,-32.0166015625,-18.1591796875
4.9333392,-48.1884765625,-34.7998046875,-20.3076171875
4.9623345,-47.9931640625,-36.0693359375,-21.9677734375
5.0003933,-47.7978515625,-37.7294921875,-24.3603515625
5.0212414,-48.9208984375,-38.8525390625,-26.2158203125
5.060406,-49.7998046875,-41.5380859375,-28.8525390625
5.0823603,-50.1416015625,-43.9306640625,-30.4150390625
5.1129044,-50.9716796875,-44.6630859375,-32.1728515625
5.1456976,-52.0947265625,-42.0751953125,-29.4384765625
5.1734098,-52.2900390625,-36.8505859375,-20.5517578125
5.202349,-53.3642578125,-32.5537109375,-10.1513671875
5.2301471,-54.5849609375,-29.0869140625,-0.7763671875
5.2643697,-55.6103515625,-23.9111328125,6.9873046875
5.292944,-56.5869140625,-19.6142578125,12.8466796875
5.3258848,-57.6611328125,-15.4638671875,16.0205078125
5.3552806,-58.4912109375,-12.3876953125,17.8271484375
5.3838554,-59.6142578125,-11.7041015625,16.5087890625
5.4152582,-61.0302734375,-13.9990234375,12.7001953125
5.4434405,-61.8603515625,-13.4130859375,9.4775390625
5.4764208,-62.7392578125,-13.8525390625,7.3291015625
5.5054598,-61.6650390625,-15.2197265625,4.3505859375
5.5320912,-58.8330078125,-18.1005859375,2.2998046875
5.5744497,-56.8798828125,-18.9306640625,-0.6298828125
5.5973202,-54.7314453125,-21.2255859375,-2.9248046875
5.6244218,-52.9248046875,-23.0810546875,-5.4150390625
5.6584348,-50.3857421875,-25.1806640625,-8.3935546875
5.6844256,-47.4560546875,-27.7197265625,-10.5419921875
5.7190843,-46.0400390625,-29.2333984375,-12.9833984375
5.7454378,-44.5751953125,-30.5517578125,-15.1806640625
5.7744091,-43.4033203125,-32.3095703125,-17.5732421875
5.8160865,-43.2080078125,-34.1162109375,-19.5751953125
5.8361076,-43.2568359375,-35.1904296875,-21.7724609375
5.8650276,-42.3779296875,-36.8994140625,-23.3349609375
5.8971259,-42.7685546875,-38.1201171875,-25.4345703125
5.9281218,-43.3056640625,-38.9990234375,-27.4365234375
5.9560981,-43.7939453125,-40.0244140625,-29.3408203125
5.9891847,-44.4287109375,-40.6591796875,-30.4638671875
6.0170585,-44.9658203125,-42.5146484375,-33.0517578125
6.0554194,-46.2353515625,-44.5654296875,-34.7607421875
6.0774664,-47.4072265625,-45.7373046875,-36.1767578125
6.1074647,-47.7978515625,-43.0517578125,-32.5146484375
6.1448541,-49.1650390625,-37.0458984375,-24.6044921875
6.1692155,-50.6787109375,-33.3349609375,-12.7392578125
6.1968839,-52.0458984375,-29.0380859375,-4.0478515625
6.2350291,-53.3642578125,-24.4482421875,3.6181640625
6.2570392,-55.0244140625,-19.6142578125,8.9404296875
6.2908613,-56.3916015625,-15.7568359375,12.9443359375
6.3190534,-58.2958984375,-12.8271484375,14.2626953125
6.3510666,-59.5654296875,-12.2900390625,11.2353515625
6.3776278,-61.9580078125,-12.5830078125,7.8173828125
6.4182398,-62.6904296875,-12.4853515625,4.5458984375
6.43825,-64.5458984375,-12.7294921875,1.6650390625
6.4788303,-63.7646484375,-14.1455078125,-0.5322265625
6.5014647,-61.1279296875,-14.1943359375,-2.4853515625
6.5314442,-58.6376953125,-15.9521484375,-5.3173828125
6.5612947,-58.0517578125,-16.4892578125,-7.2705078125
6.5908501,-55.9033203125,-19.3701171875,-9.7119140625
6.6200915,-54.7802734375,-21.1279296875,-12.2509765625
6.6594158,-52.9248046875,-23.5205078125,-14.8876953125
6.6804695,-50.7275390625,-24.7412109375,-17.4755859375
6.7131805,-50.6298828125,-26.9384765625,-19.1845703125
6.7429785,-50.0439453125,-29.3310546875,-21.6748046875
6.7689754,-50.5322265625,-32.0166015625,-23.5302734375
6.8171846,-49.8486328125,-32.8466796875,-25.4833984375
6.8355119,-49.8974609375,-35.7275390625,-27.3876953125
6.8616327,-50.7275390625,-37.0458984375,-29.2431640625
6.892315,-51.9970703125,-38.1689453125,-30.7568359375
6.9223539,-52.1435546875,-39.1455078125,-33.0517578125
6.9496328,-52.8271484375,-41.3427734375,-34.5166015625
6.9901104,-53.4619140625,-43.1005859375,-36.1279296875
7.0116638,-54.2431640625,-44.0283203125,-38.0810546875
7.0444984,-55.5126953125,-46.0302734375,-38.6181640625
7.0726683,-56.9775390625,-42.9052734375,-35.8349609375
7.1046619,-57.9541015625,-36.5576171875,-28.5595703125
7.1357607,-58.6865234375,-32.0166015625,-17.6708984375
7.1628646,-60.3955078125,-27.4267578125,-7.3193359375
7.1999517,-61.1767578125,-21.9091796875,0.9814453125
7.2259243,-62.8369140625,-17.0263671875,7.9638671875
7.25442,-64.5458984375,-11.8017578125,12.2119140625
7.2862712,-65.7177734375,-8.1396484375,14.3603515625
7.3149059,-67.2314453125,-6.1865234375,13.7255859375
7.3422284,-68.4033203125,-6.3818359375,9.5751953125
7.3839728,-70.5029296875,-6.0888671875,6.0595703125
7.403563,-71.0888671875,-5.9423828125,4.2041015625
7.4440376,-71.5771484375,-7.0166015625,2.0068359375
7.4666275,-68.8916015625,-7.8955078125,-0.5322265625
7.496731,-66.9873046875,-8.9697265625,-3.0712890625
7.5246266,-65.8642578125,-9.8486328125,-5.4150390625
7.557402,-65.0341796875,-11.4111328125,-8.7841796875
7.5856724,-63.3251953125,-14.3896484375,-10.1513671875
7.6146129,-61.5185546875,-16.3916015625,-13.2275390625
7.6466111,-59.9560546875,-18.4912109375,-15.3759765625
7.6773152,-58.8330078125,-20.4931640625,-17.3779296875
7.7096339,-59.3701171875,-21.4697265625,-19.2822265625
7.7385957,-58.4423828125,-23.9111328125,-21.3330078125
7.7665947,-59.3701171875,-25.8642578125,-23.0419921875
7.7994532,-59.0771484375,-27.5732421875,-25.2880859375
7.8285855,-59.7119140625,-30.1611328125,-26.8994140625
7.855826,-60.0048828125,-31.1376953125,-28.7548828125
7.8895818,-60.8349609375,-33.3349609375,-29.7802734375
7.9165701,-60.6884765625,-34.6533203125,-32.0263671875
7.946632,-61.4208984375,-36.7529296875,-33.9794921875
7.9806147,-62.4951171875,-38.9990234375,-35.5908203125
8.0084486,-63.1787109375,-39.8779296875,-36.8603515625
8.0395662,-64.3994140625,-37.2412109375,-34.6630859375
8.0696136,-65.0341796875,-33.1884765625,-27.4853515625
8.0976116,-66.2060546875,-28.3056640625,-16.6943359375
8.1296107,-66.6943359375,-24.6923828125,-6.5380859375
8.157701,-68.0615234375,-20.0048828125,2.1533203125
8.1870708,-69.1845703125,-15.6103515625,8.7451171875
8.2194486,-69.5263671875,-11.1669921875,13.1396484375
8.2483637,-70.4541015625,-8.0908203125,15.6787109375
8.2768427,-71.1376953125,-6.5771484375,14.5068359375
8.3097064,-72.7978515625,-7.2607421875,11.2353515625
8.3382564,-74.0185546875,-8.0908203125,8.5498046875
8.3712056,-74.3603515625,-8.6279296875,4.5458984375
8.400596,-75.8251953125,-10.4345703125,2.9833984375
8.4289097,-73.7744140625,-11.7041015625,0.9326171875
8.4627109,-70.6982421875,-13.8037109375,-1.8505859375
8.4911804,-68.6474609375,-15.8056640625,-4.2431640625
8.5200449,-68.5009765625,-19.1259765625,-6.0498046875
8.554223,-66.5966796875,-22.3974609375,-9.6142578125
8.5799863,-64.7412109375,-24.8876953125,-10.7373046875
8.6127866,-63.3740234375,-28.6962890625,-14.0576171875
8.6422082,-61.0791015625,-30.6005859375,-15.8154296875
8.671318,-60.7373046875,-32.9443359375,-17.3779296875
8.703297,-60.2978515625,-35.4833984375,-19.9658203125
8.7331384,-59.8583984375,-36.5576171875,-21.5283203125
8.7606484,-59.3212890625,-39.5361328125,-23.5791015625
8.794565,-59.4677734375,-40.8544921875,-24.9462890625
8.8217376,-59.5654296875,-41.4892578125,-27.0458984375
8.8511502,-59.2236328125,-42.9541015625,-28.2177734375
8.8834545,-59.8583984375,-44.5654296875,-29.9267578125
8.912678,-59.9072265625,-45.8349609375,-31.6357421875
8.9409248,-60.9814453125,-48.0810546875,-33.6376953125
8.9730546,-60.9814453125,-47.7880859375,-33.5888671875
9.0025787,-61.6162109375,-43.3935546875,-28.5107421875
9.0353311,-62.3486328125,-39.2919921875,-18.8916015625
9.0640947,-63.2763671875,-35.0927734375,-8.9306640625
9.0937078,-63.6669921875,-32.1630859375,0.4931640625
9.1488304,-64.3994140625,-28.0615234375,6.3525390625
9.1598807,-65.7666015625,-25.8154296875,10.7958984375
9.1849627,-66.2548828125,-22.4462890625,14.3603515625
9.2265869,-66.8896484375,-20.6884765625,13.9208984375
9.2469755,-68.2568359375,-20.9814453125,11.2353515625
9.2733999,-69.1357421875,-20.7861328125,7.8173828125
9.3133761,-69.9169921875,-19.9072265625,5.7666015625
9.3358299,-70.6494140625,-20.5908203125,3.3251953125
9.3672331,-70.5517578125,-21.1767578125,0.5419921875
9.3943818,-67.2802734375,-21.6162109375,-1.3623046875
9.4250773,-63.5205078125,-22.0556640625,-3.9501953125
9.4782018,-62.6904296875,-23.7646484375,-5.9521484375
9.4866986,-60.5419921875,-26.3037109375,-8.6376953125
9.5146659,-59.2724609375,-28.5498046875,-10.6396484375
9.5478428,-56.7333984375,-30.0146484375,-13.1787109375
9.5755305,-54.6826171875,-31.6748046875,-15.3271484375
9.6144839,-53.0712890625,-32.9931640625,-17.1337890625
9.6375804,-53.0712890625,-34.9462890625,-18.9892578125
9.6647933,-52.4853515625,-35.7763671875,-20.6494140625
9.7146331,-52.2900390625,-37.3388671875,-22.9443359375
9.7456,-52.3388671875,-38.1689453125,-24.7021484375
9.7582736,-52.3876953125,-39.0478515625,-26.6552734375
9.7875931,-52.5341796875,-40.3662109375,-28.3154296875
9.8168011,-53.1201171875,-41.0009765625,-30.3173828125
9.8572027,-53.9990234375,-42.7099609375,-31.5380859375
9.8800056,-54.1455078125,-43.7353515625,-33.2958984375
9.9091639,-54.5361328125,-40.0244140625,-31.6357421875
9.9391828,-55.8056640625,-34.6533203125,-24.4580078125
9.9687161,-56.1962890625,-29.5751953125,-13.8623046875
10.0092499,-56.9287109375,-24.4482421875,-4.4384765625
10.0302494,-58.1982421875,-19.8583984375,3.1787109375
10.0581709,-59.7119140625,-14.1455078125,9.0869140625
10.0969638,-60.0537109375,-9.7998046875,11.9677734375
10.1199739,-61.1767578125,-5.9423828125,13.5791015625
10.1489862,-61.9091796875,-4.4775390625,12.6025390625
10.181969,-63.1787109375,-5.3076171875,9.0869140625
10.2109995,-64.5947265625,-5.2587890625,5.4736328125
10.2400013,-65.8154296875,-5.6494140625,3.5693359375
10.2803663,-67.0849609375,-7.3583984375,1.1279296875
10.2999562,-65.7177734375,-7.8466796875,-0.5322265625
10.3424305,-61.9091796875,-9.3603515625,-2.8271484375
10.3609561,-59.1748046875,-11.2646484375,-5.7568359375
10.4014984,-57.3681640625,-12.2412109375,-7.8564453125
10.4234602,-56.0498046875,-14.6826171875,-10.0537109375
10.4525958,-53.8037109375,-16.9287109375,-13.1298828125
10.4794681,-52.4853515625,-18.8818359375,-14.7900390625
10.5219346,-50.3369140625,-20.5908203125,-16.9384765625
10.54318,-49.9462890625,-22.1533203125,-19.4775390625
10.5838365,-50.1904296875,-23.9111328125,-20.9912109375
10.6061794,-49.6044921875,-25.1806640625,-22.8466796875
10.6321878,-49.4580078125,-26.2548828125,-25.4833984375
10.6734329,-49.4580078125,-27.9638671875,-26.3623046875
10.6934365,-49.9462890625,-28.9404296875,-28.4619140625
10.734162,-50.8251953125,-30.7470703125,-30.9521484375
10.7542285,-50.8251953125,-32.0654296875,-32.6611328125
10.795298,-52.1435546875,-33.4814453125,-33.7353515625
10.81284,-53.4130859375,-30.4052734375,-31.3427734375
10.853393,-54.0478515625,-24.7900390625,-23.2373046875
10.8734129,-54.6826171875,-20.2490234375,-12.2021484375
10.9147525,-56.2939453125,-16.0986328125,-3.2177734375
10.9363958,-57.0263671875,-11.5087890625,4.3505859375
10.9637574,-58.0517578125,-6.5771484375,9.7216796875
11.0054176,-58.9306640625,-1.5966796875,13.3837890625
11.0265197,-59.6630859375,2.2607421875,14.6044921875
11.0543376,-60.6884765625,3.2373046875,13.1396484375
11.0945488,-62.0556640625,2.7978515625,10.6494140625
11.1135755,-63.2275390625,2.3095703125,7.2314453125
11.1538352,-63.9599609375,2.6025390625,5.1806640625
11.1856538,-65.5712890625,0.2099609375,3.0322265625
11.2066832,-63.8623046875,-0.6201171875,0.7861328125
11.2356429,-59.9560546875,-0.6689453125,-2.7294921875
11.2668765,-56.7333984375,-2.4755859375,-3.7060546875
11.2960097,-54.7802734375,-4.6240234375,-5.9521484375
11.336013,-52.9248046875,-6.8212890625,-8.7353515625
11.3568164,-50.8740234375,-8.8232421875,-11.8115234375
11.3959404,-48.8232421875,-11.4111328125,-13.9599609375
11.4181763,-47.7001953125,-13.8037109375,-15.4248046875
11.4586592,-45.9912109375,-16.1474609375,-17.0361328125
11.475772,-46.0400390625,-18.9306640625,-19.5263671875
11.5181272,-46.0400390625,-22.0556640625,-20.8447265625
11.5365529,-45.6005859375,-23.9599609375,-22.3583984375
11.5744765,-46.1376953125,-27.0361328125,-23.2373046875
11.5981193,-45.4541015625,-29.9658203125,-25.2392578125
11.6264751,-46.7724609375,-32.1630859375,-26.4111328125
11.6673821,-47.8955078125,-33.5791015625,-28.7060546875
11.689272,-48.0908203125,-34.4580078125,-28.1689453125
11.7173913,-49.0185546875,-30.1611328125,-23.5302734375
11.7594666,-50.0439453125,-26.1572265625,-13.3251953125
11.778468,-50.3857421875,-22.7880859375,-2.4853515625
11.8095172,-51.4599609375,-18.5400390625,5.6689453125
11.8485407,-52.5341796875,-13.2666015625,12.2119140625
11.8716177,-53.6572265625,-8.4814453125,17.3876953125
11.8976056,-54.1943359375,-3.5986328125,20.2197265625
11.9395182,-54.7802734375,-0.8642578125,20.7080078125
11.9615493,-55.7080078125,-0.7666015625,16.8994140625
11.9915651,-56.7822265625,0.6982421875,13.4326171875
12.0196049,-58.2470703125,0.1123046875,11.0888671875
12.0595913,-59.3212890625,0.3564453125,8.8916015625
12.0836433,-59.4677734375,-0.4736328125,6.5966796875
12.1112316,-57.1240234375,-0.9130859375,4.6923828125
12.1537797,-53.4619140625,-2.5732421875,1.9580078125
12.1717848,-51.2158203125,-3.9892578125,-0.3369140625
12.2017828,-48.8232421875,-6.1376953125,-3.0712890625
12.2471976,-46.4794921875,-8.2373046875,-4.6337890625
12.2622028,-44.8193359375,-10.9228515625,-7.5146484375
12.2902612,-42.3291015625,-13.0712890625,-9.6142578125
12.3335941,-40.9619140625,-15.9521484375,-10.6396484375
12.3541582,-39.9853515625,-18.2470703125,-13.2763671875
12.3818504,-40.0830078125,-20.0048828125,-14.9365234375
12.4222704,-39.5458984375,-22.0556640625,-16.6943359375
12.4433836,-39.4482421875,-22.4462890625,-18.4033203125
12.4713616,-40.1806640625,-23.3251953125,-19.9169921875
12.5052821,-40.9619140625,-24.6923828125,-22.0654296875
12.5330898,-41.6943359375,-26.3525390625,-23.9697265625
12.5652812,-41.9384765625,-27.4755859375,-25.4833984375
12.5942897,-42.0849609375,-25.5224609375,-23.1884765625
12.6222911,-43.4033203125,-19.9560546875,-16.1572265625
12.6513455,-43.9892578125,-14.8779296875,-5.8544921875
12.6933091,-44.5751953125,-10.3857421875,3.4716796875
12.7122955,-45.3564453125,-5.9423828125,10.7958984375
12.7469139,-46.2353515625,-0.6201171875,16.1669921875
12.775277,-46.5771484375,4.4580078125,19.7802734375
12.804287,-47.9443359375,8.1689453125,20.5615234375
12.8352669,-49.0185546875,9.7314453125,18.6572265625
12.8632721,-49.8974609375,9.8291015625,15.5322265625
12.9032368,-51.1181640625,10.3662109375,12.5537109375
12.9260138,-51.9482421875,11.0009765625,10.0146484375
12.95447,-53.2177734375,9.7314453125,8.5986328125
12.9874633,-53.5595703125,9.0478515625,6.2548828125
13.0164571,-50.6787109375,7.8759765625,4.1552734375
13.043472,-47.7490234375,6.4599609375,1.2255859375
13.0841539,-45.1611328125,3.8232421875,-0.9716796875
13.1066303,-43.6474609375,2.4560546875,-2.7294921875
13.1401916,-41.8896484375,-0.0830078125,-5.7568359375
13.168191,-40.2294921875,-1.9873046875,-7.4169921875
13.1952193,-38.5693359375,-3.6474609375,-9.4677734375
13.225239,-37.2998046875,-4.9169921875,-11.2255859375
13.2581699,-37.4462890625,-7.1142578125,-13.4228515625
13.2871857,-37.8857421875,-9.0673828125,-15.1318359375
13.3181834,-37.1044921875,-9.2138671875,-17.1826171875
13.3487912,-37.4462890625,-10.6298828125,-18.9892578125
13.3787218,-37.5439453125,-11.8017578125,-20.4541015625
13.4101872,-37.9833984375,-13.2666015625,-21.9677734375
13.4391633,-38.8623046875,-14.5849609375,-23.2861328125
13.4670579,-39.6435546875,-12.6806640625,-23.3349609375
13.4981449,-40.6201171875,-8.4326171875,-17.1826171875
13.5290421,-42.0361328125,-2.9638671875,-7.1240234375
13.5592532,-42.7197265625,1.4794921875,4.2041015625
13.589436,-43.2080078125,5.5810546875,12.7490234375
13.6194444,-44.7216796875,11.7333984375,19.4384765625
13.6494521,-45.6005859375,16.2744140625,24.0771484375
13.678428,-47.1142578125,20.1806640625,27.2998046875
13.7114255,-48.1396484375,23.5498046875,27.1044921875
13.7404673,-49.1650390625,23.5986328125,24.3212890625
13.7704351,-50.8740234375,23.7451171875,20.1220703125
13.8005826,-51.7529296875,25.0146484375,17.3876953125
13.831415,-53.0224609375,23.8427734375,15.2880859375
13.8584298,-53.7548828125,22.4267578125,12.9443359375
13.8914623,-52.5830078125,21.4501953125,10.1611328125
13.9194482,-48.8232421875,20.1806640625,7.4755859375
13.9514182,-46.3818359375,17.2998046875,5.2294921875
13.9814548,-43.6962890625,15.0537109375,2.8857421875
14.0112126,-41.9384765625,11.8310546875,0.6884765625
14.0414122,-38.8623046875,9.7802734375,-1.4599609375
14.0725302,-36.6650390625,7.4853515625,-3.8037109375
14.1013932,-34.6142578125,3.4814453125,-6.0498046875
14.1336536,-33.6376953125,1.2841796875,-7.7587890625
14.1641782,-34.1259765625,-1.3037109375,-10.0048828125
14.1906666,-34.1748046875,-3.7939453125,-11.8603515625
14.2206893,-33.1005859375,-6.1376953125,-13.2763671875
14.2681039,-33.4423828125,-7.7001953125,-15.1318359375
14.2810159,-34.1748046875,-9.7998046875,-17.2314453125
14.3389944,-34.3212890625,-11.0693359375,-18.7451171875
14.3424752,-35.2490234375,-12.0947265625,-19.6240234375
14.3720669,-35.5419921875,-8.4326171875,-17.1337890625
14.4155883,-36.7138671875,-2.9638671875,-8.1494140625
14.4329466,-37.7880859375,1.3818359375,3.2275390625
14.4658889,-38.4716796875,5.5810546875,13.0908203125
14.5059209,-38.9599609375,9.9267578125,20.6591796875
14.523547,-39.9365234375,15.6884765625,26.5185546875
14.5556462,-41.0107421875,18.2763671875,30.5712890625
14.5969033,-41.8408203125,21.1572265625,32.7685546875
14.6138488,-43.0615234375,22.2802734375,31.4990234375
14.6468765,-44.1845703125,20.0341796875,27.6904296875
14.673162,-44.9658203125,20.0830078125,24.1259765625
14.7132598,-46.1376953125,18.6669921875,21.3916015625
14.7343009,-47.0654296875,16.1279296875,19.4384765625
14.7651305,-48.1884765625,14.9560546875,16.5087890625
14.8045714,-46.2353515625,12.0263671875,14.4091796875
14.8267,-42.5732421875,11.0498046875,10.9912109375
14.8660831,-40.5224609375,8.8037109375,8.2080078125
14.8864458,-38.4228515625,6.7041015625,6.2548828125
14.9393747,-36.1279296875,5.0439453125,3.1787109375
14.9428807,-33.4423828125,2.5537109375,1.1767578125
14.9858467,-30.7568359375,0.7958984375,-0.6298828125
15.006096,-28.6572265625,-1.1083984375,-3.1689453125
15.046313,-27.6318359375,-3.2568359375,-5.1220703125
15.068781,-26.8505859375,-5.0146484375,-7.0263671875
15.1118065,-26.4111328125,-6.9677734375,-8.4912109375
15.126607,-26.0693359375,-9.1162109375,-10.5908203125
15.1669221,-25.4833984375,-11.0693359375,-12.1044921875
15.1869655,-25.6787109375,-13.5107421875,-14.0087890625
15.2357991,-25.5322265625,-15.4638671875,-15.5712890625
15.2548455,-26.1181640625,-16.6845703125,-17.7685546875
15.2800649,-26.3134765625,-14.0478515625,-15.7666015625
15.3082609,-27.7783203125,-8.8720703125,-9.0283203125
15.350851,-28.3642578125,-4.9169921875,1.1279296875
15.3660344,-29.3408203125,-1.6943359375,10.4052734375
15.409596,-30.3173828125,2.9931640625,18.0712890625
15.430561,-31.1474609375,7.3876953125,22.6611328125
15.4855921,-31.9775390625,10.9033203125,27.5927734375
15.4893172,-32.8564453125,13.5400390625,28.9111328125
15.5304932,-33.6376953125,14.6142578125,28.0322265625
15.5523582,-34.6630859375,14.1259765625,24.0283203125
15.5935544,-36.5185546875,13.9794921875,20.3173828125
15.6085099,-37.8369140625,13.4912109375,17.9248046875
15.6571531,-39.3017578125,12.0263671875,15.4345703125
15.6776912,-40.0341796875,11.6845703125,12.9443359375
15.699963,-39.8388671875,9.9755859375,10.4541015625
15.7414991,-37.0556640625,7.9248046875,8.1591796875
15.7610525,-35.4443359375,5.1416015625,5.2783203125
15.7977703,-33.3447265625,2.7001953125,3.1787109375
15.8211158,-31.5869140625,1.0400390625,0.9326171875
15.8632988,-29.3408203125,-0.7666015625,-1.1181640625
15.884507,-26.8994140625,-1.4990234375,-3.4619140625
15.923293,-25.3857421875,-3.9404296875,-6.0009765625
15.9386747,-23.1884765625,-2.8662109375,-8.4912109375
15.9803992,-23.0419921875,-4.1845703125,-10.6396484375
15.9995987,-22.1142578125,-5.0146484375,-12.5439453125
16.0371676,-21.9677734375,-6.1376953125,-14.4482421875
16.0628693,-21.7724609375,-6.9677734375,-16.4013671875
16.1015667,-22.3095703125,-8.7255859375,-18.5986328125
16.1236108,-22.3583984375,-9.8486328125,-20.3564453125
16.1659121,-22.9931640625,-10.2880859375,-21.5283203125
16.1818475,-23.9208984375,-6.8212890625,-19.9169921875
16.2218828,-24.5068359375,-1.1083984375,-12.7392578125
16.2440685,-24.7998046875,3.8232421875,-3.2177734375
16.2763718,-25.7275390625,9.0966796875,5.3759765625
16.3051269,-27.0458984375,13.7353515625,12.8466796875
16.3461242,-28.0224609375,19.9853515625,18.2666015625
16.3604276,-29.1943359375,23.5009765625,22.3193359375
16.4028307,-30.5615234375,27.3583984375,23.8818359375
16.4240855,-31.8310546875,29.0185546875,22.3681640625
16.4657749,-33.7353515625,28.4326171875,18.7548828125
16.4852388,-34.9072265625,28.5302734375,15.3369140625
16.5256743,-35.8837890625,27.5537109375,11.8701171875
16.5566685,-37.1044921875,25.8935546875,10.5517578125
16.5742303,-38.8623046875,24.8681640625,7.6220703125
16.6208678,-38.7158203125,22.9638671875,4.4970703125
16.6370446,-36.7626953125,22.2314453125,2.1044921875
16.6750884,-34.7607421875,20.0830078125,-1.1181640625
16.6960043,-33.4423828125,17.5439453125,-3.5595703125
16.7464251,-31.5869140625,15.2490234375,-6.0986328125
16.7675249,-30.0244140625,13.5888671875,-8.9306640625
16.7884779,-28.0712890625,12.0263671875,-10.9814453125
16.826496,-25.9228515625,10.3662109375,-13.6181640625
16.8505409,-24.5068359375,8.5595703125,-15.8154296875
16.8905093,-24.0185546875,6.5087890625,-17.8173828125
16.9074696,-23.6767578125,5.2392578125,-19.6728515625
16.9435334,-23.2373046875,2.7490234375,-21.6748046875
16.9666395,-22.7978515625,2.0166015625,-23.0419921875
17.0159004,-23.0419921875,0.2587890625,-25.7763671875
17.0357768,-23.1884765625,-2.6708984375,-27.0947265625
17.0578146,-24.3115234375,-4.0380859375,-28.9013671875
17.098496,-25.0927734375,-2.2802734375,-27.9736328125
17.1203862,-25.2392578125,3.6279296875,-22.5537109375
17.1628457,-26.6064453125,8.0712890625,-13.6181640625
17.1761355,-27.3388671875,11.4892578125,-4.1943359375
17.2171634,-28.2177734375,17.1044921875,3.9111328125
17.2368458,-29.2919921875,22.1337890625,9.9658203125
17.2859548,-30.7568359375,26.4794921875,14.2138671875
17.3059985,-31.8798828125,30.8251953125,17.1435546875
17.3304203,-33.3447265625,32.1923828125,17.4365234375
17.3733585,-35.0048828125,31.4111328125,14.6533203125
17.3905546,-36.0791015625,31.1181640625,11.2841796875
17.4193498,-37.5439453125,30.3369140625,9.2333984375
17.4613451,-38.4716796875,28.7744140625,6.8408203125
17.480148,-40.2294921875,26.2841796875,4.8876953125
17.5198961,-40.5224609375,23.6962890625,1.9580078125
17.5413985,-39.1552734375,20.1806640625,0.3466796875
17.5790907,-35.8837890625,17.3974609375,-2.3388671875
17.5997694,-34.8095703125,14.5166015625,-4.9267578125
17.6317942,-33.1494140625,10.7568359375,-7.2705078125
17.6709063,-31.2939453125,8.9501953125,-9.1748046875
17.6939441,-29.6826171875,6.0693359375,-11.1767578125
17.7219424,-27.1435546875,3.9208984375,-13.7158203125
17.7510184,-24.8974609375,1.4794921875,-15.8642578125
17.7829414,-25.0927734375,-0.6689453125,-17.8173828125
17.8129341,-24.3603515625,-2.4267578125,-19.8193359375
17.8438603,-23.5302734375,-3.3056640625,-22.0166015625
17.8722786,-23.3349609375,-5.6982421875,-23.6767578125
17.9139809,-23.7744140625,-6.7236328125,-25.6298828125
17.9300657,-23.4814453125,-9.2138671875,-27.4365234375
17.9639984,-24.3115234375,-12.4365234375,-29.2431640625
17.9909925,-24.3603515625,-12.6806640625,-30.9033203125
18.0240005,-24.8486328125,-10.4345703125,-29.6337890625
18.0529821,-25.7275390625,-6.2353515625,-23.9208984375
18.0819991,-27.2900390625,-2.2314453125,-14.8876953125
18.1230526,-27.6318359375,1.3818359375,-5.5126953125
18.1430491,-28.0224609375,5.3369140625,1.4208984375
18.1728228,-29.4384765625,10.9033203125,7.4755859375
18.2110577,-30.3662109375,14.5166015625,11.6748046875
18.2325042,-31.9287109375,17.1533203125,14.1650390625
18.2736025,-33.1982421875,19.1552734375,14.1650390625
18.2946442,-34.7119140625,17.0556640625,10.5517578125
18.324642,-36.2744140625,17.3486328125,8.1103515625
18.3658276,-38.0810546875,16.4208984375,5.8154296875
18.3832501,-39.1064453125,15.2490234375,3.2763671875
18.4172691,-39.7412109375,13.5888671875,2.2021484375
18.4462633,-41.2548828125,11.6357421875,-0.4833984375
18.4772936,-38.5205078125,8.2666015625,-3.4130859375
18.5067231,-35.9814453125,6.1181640625,-5.2685546875
18.536386,-34.7119140625,2.3583984375,-7.2216796875
18.5647275,-33.1982421875,0.6494140625,-10.2001953125
18.5987618,-31.7822265625,-0.7177734375,-12.7392578125
18.6267005,-29.2919921875,-2.2314453125,-14.7900390625
18.6562201,-28.1689453125,-2.5732421875,-16.5966796875
18.6877081,-26.7041015625,-3.2568359375,-18.6474609375
18.7166861,-25.6787109375,-4.5751953125,-21.0400390625
18.7446954,-26.4599609375,-6.1865234375,-22.5537109375
18.7796971,-26.0205078125,-7.6025390625,-25.3857421875
18.8076764,-26.2158203125,-9.8486328125,-26.7041015625
18.8396885,-26.1181640625,-11.5576171875,-28.0712890625
18.8706841,-26.1669921875,-13.5595703125,-30.0244140625
18.8976707,-27.6318359375,-14.9755859375,-32.2216796875
18.9306897,-28.5595703125,-15.1708984375,-33.7353515625
18.9596616,-28.4130859375,-11.1181640625,-30.4638671875
18.9901928,-29.0966796875,-4.3798828125,-24.1162109375
19.019672,-30.6103515625,-0.0341796875,-14.7900390625
19.0496598,-30.8056640625,5.7275390625,-6.5869140625
19.076192,-32.1728515625,11.7822265625,0.2490234375
19.1096763,-32.8564453125,16.3720703125,5.5224609375
19.1376626,-35.1025390625,21.1572265625,9.2822265625
19.1736799,-36.0302734375,24.3798828125,11.4794921875
19.199663,-37.2998046875,24.8193359375,9.9169921875
19.2276437,-38.5205078125,25.4541015625,7.6220703125
19.2617454,-39.8388671875,26.0888671875,5.0830078125
19.2906599,-40.9619140625,25.9423828125,3.9599609375
19.320647,-42.5732421875,24.7216796875,1.5673828125
19.3526523,-44.9169921875,23.6474609375,-0.2880859375
19.3816403,-45.2587890625,21.6943359375,-2.0947265625
19.4126447,-42.2802734375,19.3994140625,-4.5361328125
19.4562795,-39.6923828125,16.5185546875,-7.0263671875
19.4692934,-38.7158203125,14.7119140625,-9.3212890625
19.503293,-38.1298828125,11.6845703125,-11.2744140625
19.5450579,-35.5908203125,9.3408203125,-13.2763671875
19.5582564,-35.3955078125,7.2900390625,-15.4248046875
19.5927014,-33.1494140625,5.0439453125,-17.3291015625
19.6231503,-32.9052734375,3.0419921875,-19.0869140625
19.6513078,-32.9052734375,1.5771484375,-21.3330078125
19.6845965,-33.4423828125,-0.7177734375,-22.6513671875
19.7250735,-33.2958984375,-1.8408203125,-23.5302734375
19.7391237,-33.6376953125,-3.5498046875,-25.9228515625
19.7737658,-34.0283203125,-4.7216796875,-27.5341796875
19.8135843,-34.7119140625,-7.4072265625,-28.7548828125
19.8326578,-35.9326171875,-7.0654296875,-30.8544921875
19.8622762,-37.3486328125,-5.2587890625,-29.8291015625
19.9080248,-37.8857421875,0.2099609375,-24.0185546875
19.9245279,-38.1787109375,5.7763671875,-15.4248046875
19.9677105,-39.9853515625,10.2197265625,-4.8291015625
19.9844976,-40.7666015625,15.7373046875,3.1298828125
20.0168425,-42.2314453125,21.4501953125,9.5751953125
20.0567942,-43.2080078125,26.6259765625,14.9462890625
20.0721028,-44.1845703125,31.4599609375,18.1689453125
20.1143167,-44.9169921875,33.4130859375,19.4873046875
20.1338369,-46.7724609375,32.7783203125,17.3876953125
20.1758608,-47.4072265625,32.6318359375,14.9462890625
20.197665,-48.8232421875,32.4853515625,12.6513671875
20.2413898,-50.2392578125,31.1669921875,11.1865234375
20.2553172,-51.2646484375,29.7509765625,9.2822265625
20.2970329,-52.7294921875,28.0419921875,7.1826171875
20.3186637,-51.5087890625,25.8935546875,4.8876953125
20.3577451,-47.9443359375,22.3291015625,2.0556640625
20.378349,-44.6240234375,18.4716796875,0.3466796875
20.4190774,-42.8173828125,14.5654296875,-1.8505859375
20.4355913,-41.4501953125,12.0263671875,-3.5107421875
20.4731837,-39.4970703125,8.4619140625,-6.0986328125
20.4992638,-37.5927734375,5.4833984375,-8.2958984375
20.541664,-36.4697265625,3.3349609375,-10.0048828125
20.5553675,-35.4443359375,1.5771484375,-11.8603515625
20.5976228,-35.9326171875,-1.1572265625,-13.8134765625
20.6183826,-36.4208984375,-2.8173828125,-15.1806640625
20.6586991,-36.3720703125,-4.6240234375,-17.2802734375
20.6791089,-36.0302734375,-6.0888671875,-18.3544921875
20.7196262,-37.0556640625,-8.2861328125,-20.3076171875
20.7408354,-37.7880859375,-9.0185546875,-22.4072265625
20.7788597,-38.5693359375,-9.4091796875,-22.6513671875
20.7998174,-38.7158203125,-4.3798828125,-19.6728515625
20.838436,-39.6435546875,0.7470703125,-10.9326171875
20.8586541,-40.5712890625,3.8720703125,-0.9716796875
20.8943186,-41.3037109375,9.1943359375,8.0126953125
20.9284136,-41.8896484375,13.2470703125,15.6787109375
20.9484141,-43.2568359375,18.8134765625,21.1962890625
20.9874257,-44.4287109375,23.1103515625,25.8837890625
21.0100091,-45.2587890625,25.3564453125,27.1044921875
21.0518802,-45.8447265625,25.8447265625,25.6396484375
21.0716693,-46.7236328125,25.0634765625,22.5146484375
21.1102222,-47.5537109375,24.6728515625,20.5615234375
21.1301709,-49.1162109375,23.2568359375,18.9990234375
21.1696679,-49.8974609375,22.2314453125,17.1435546875
21.1885164,-51.1181640625,20.7177734375,15.1416015625
21.2281885,-51.3623046875,19.8388671875,12.7001953125
21.2518219,-48.5791015625,17.2998046875,10.9423828125
21.2934581,-45.1123046875,14.7119140625,8.2080078125
21.3119623,-42.6708984375,11.7333984375,6.6455078125
21.3531507,-40.3759765625,10.0732421875,4.5458984375
21.373936,-38.6181640625,7.9736328125,3.6669921875
21.4149402,-35.9814453125,5.4833984375,1.5185546875
21.4328127,-34.1259765625,4.5556640625,-0.4833984375
21.4747686,-32.7099609375,2.8466796875,-1.7529296875
21.4938208,-32.8564453125,1.4306640625,-2.5341796875
21.5219,-32.6611328125,0.2099609375,-4.0966796875
21.5608569,-32.1728515625,-1.0107421875,-4.9755859375
21.582419,-32.2705078125,-2.5244140625,-6.1474609375
21.6211973,-32.3681640625,-5.3076171875,-7.5634765625
21.6430088,-32.4169921875,-6.9677734375,-9.2236328125
21.6821191,-33.1005859375,-6.7724609375,-9.3212890625
21.70301,-33.6865234375,-2.2802734375,-5.4638671875
21.7467276,-34.5166015625,2.5048828125,3.7158203125
21.7658276,-35.2001953125,5.5810546875,14.0185546875
21.8086266,-35.9326171875,10.5126953125,22.6611328125
21.827946,-36.4208984375,15.4931640625,29.5458984375
21.8688568,-37.6904296875,19.4970703125,34.3310546875
21.8808659,-38.5205078125,23.9892578125,36.9189453125
21.9228808,-39.3505859375,26.3330078125,37.0654296875
21.9435861,-40.2783203125,26.8212890625,34.8193359375
21.9836874,-40.9130859375,27.7490234375,32.1337890625
22.0049107,-42.6220703125,27.8466796875,29.2041015625
22.0466843,-44.2333984375,27.6025390625,27.9345703125
22.0676666,-44.9658203125,27.0166015625,25.8349609375
22.1077267,-46.7236328125,27.1630859375,23.3935546875
22.1277847,-47.3095703125,27.2119140625,21.6357421875
22.1663055,-43.9404296875,24.4287109375,19.2919921875
22.1878051,-40.8642578125,22.9150390625,17.0458984375
22.2295331,-37.9345703125,20.1318359375,14.9951171875
22.245528,-35.8837890625,18.8134765625,12.4560546875
22.2886006,-34.1259765625,16.5185546875,10.6982421875
22.3084583,-32.2216796875,14.0283203125,8.5009765625
22.3498542,-30.1708984375,11.4404296875,6.5478515625
22.3638159,-29.3408203125,10.4638671875,5.2783203125
22.4042213,-29.4873046875,8.5595703125,2.9833984375
22.4263534,-29.7314453125,7.2412109375,1.4208984375
22.466199,-28.9990234375,6.6064453125,-0.0439453125
22.5005536,-29.0478515625,4.3115234375,-1.6064453125
22.5169284,-29.2431640625,2.8955078125,-3.7060546875
22.5599456,-29.8779296875,3.1396484375,-4.2919921875
22.5793791,-31.2939453125,7.1923828125,-0.8251953125
22.6188651,-32.0751953125,13.6865234375,7.7197265625
22.6388802,-32.9052734375,17.8857421875,18.4130859375
22.6820537,-34.3212890625,22.3291015625,27.6416015625
22.698549,-34.8095703125,27.3583984375,35.7470703125
22.7315831,-35.6396484375,32.9248046875,42.0458984375
22.7584844,-36.5185546875,37.3681640625,45.8056640625
22.7975554,-37.5439453125,41.0791015625,47.4658203125
22.8195038,-38.4228515625,41.6650390625,45.8056640625
22.858091,-39.6435546875,41.8115234375,42.7783203125
22.8784965,-40.8154296875,41.9091796875,39.5556640625
22.9199994,-41.7431640625,41.9091796875,37.0166015625
22.9403885,-42.3779296875,37.5146484375,36.1376953125
22.9942131,-43.9404296875,33.4130859375,33.6962890625
22.9998661,-45.1611328125,31.4111328125,30.7666015625
23.0423605,-44.3310546875,29.7021484375,28.1298828125
23.0641792,-40.0830078125,25.6005859375,26.0791015625
23.0891574,-36.5673828125,24.2822265625,23.7353515625
23.1301375,-34.3212890625,21.3037109375,21.2939453125
23.1519821,-32.0263671875,19.2529296875,18.8525390625
23.1796287,-29.4873046875,16.9580078125,16.6064453125
23.220531,-27.5830078125,14.3212890625,14.6533203125
23.2437992,-25.2880859375,11.6845703125,13.1396484375
23.2709124,-23.7744140625,9.8779296875,11.0400390625
23.3105126,-23.6279296875,7.1923828125,10.3076171875
23.333024,-23.4814453125,4.8974609375,8.2080078125
23.3645084,-22.9443359375,3.3837890625,6.2060546875
23.392504,-23.6767578125,1.1376953125,4.3505859375
23.4243792,-23.4326171875,1.4794921875,3.5205078125
23.4515288,-24.3115234375,4.8486328125,6.0595703125
23.4826405,-24.7998046875,9.6826171875,13.7744140625
23.5227304,-25.1416015625,13.7353515625,24.4189453125
23.5467368,-26.5087890625,18.0322265625,33.5009765625
23.5727255,-27.3388671875,22.8662109375,40.5810546875
23.60374,-28.0712890625,27.3095703125,46.0009765625
23.6367588,-29.0966796875,31.4111328125,49.1748046875
23.6642007,-30.3662109375,34.5849609375,50.8349609375
23.6961611,-30.9521484375,34.9755859375,49.9072265625
23.7262582,-32.4169921875,33.9990234375,46.4404296875
23.755155,-33.6865234375,33.4619140625,42.8759765625
23.7877135,-33.9306640625,32.6318359375,40.1416015625
23.8177097,-35.1025390625,30.9716796875,38.5302734375
23.8446839,-36.7626953125,29.5556640625,35.6005859375
23.8766214,-37.2021484375,29.0185546875,32.9638671875
23.906706,-37.2509765625,26.7236328125,30.0341796875
23.9338097,-34.5166015625,23.5986328125,27.6416015625
23.9671323,-31.1962890625,21.1572265625,25.2978515625
23.9971106,-28.8037109375,19.6923828125,21.6357421875
24.0226902,-26.8505859375,17.4951171875,20.1708984375
24.0577354,-24.2626953125,15.3955078125,17.3388671875
24.0853179,-22.0654296875,13.3447265625,14.9462890625
24.1183389,-20.0634765625,11.7333984375,12.9443359375
24.1474184,-18.2568359375,10.0732421875,10.5517578125
24.1758741,-17.3779296875,8.9990234375,8.2568359375
24.2073263,-16.9384765625,7.3388671875,6.5966796875
24.2373261,-16.6455078125,4.7021484375,3.7158203125
24.2673364,-16.3037109375,2.9931640625,2.1044921875
24.2977399,-16.3525390625,1.8212890625,-0.0439453125
24.3263021,-16.8408203125,5.5810546875,2.2021484375
24.3607027,-17.3779296875,11.3427734375,8.1103515625
24.3893044,-18.4033203125,15.3466796875,15.7763671875
24.4190699,-18.4521484375,20.7666015625,22.3193359375
24.4473603,-19.2822265625,25.5029296875,26.9091796875
24.4908734,-20.1123046875,30.5810546875,30.4736328125
24.5126958,-20.9912109375,34.1943359375,32.4267578125
24.5540195,-21.6259765625,36.0498046875,32.3779296875
24.5678414,-22.2607421875,35.5615234375,29.4482421875
24.5970441,-23.6279296875,34.3896484375,26.6650390625
24.6311055,-24.6044921875,34.0966796875,24.6142578125
24.6720304,-26.0205078125,33.9501953125,22.1728515625
24.6933649,-27.3876953125,32.7783203125,19.3408203125
24.7319836,-28.2177734375,31.3623046875,17.0458984375
24.7540382,-29.1455078125,30.9716796875,14.6533203125
24.7948095,-29.6337890625,29.0185546875,12.1630859375
24.8104663,-27.0458984375,27.5048828125,9.0869140625
24.8543905,-24.4091796875,25.2099609375,6.3037109375
24.8724942,-22.1142578125,23.7939453125,3.9111328125
24.9140013,-20.3564453125,22.1337890625,1.7626953125
24.9339894,-18.5009765625,20.1806640625,-1.8017578125
24.9778092,-16.3037109375,19.5458984375,-3.9013671875
24.9897171,-14.3017578125,18.4228515625,-5.7568359375
25.0319875,-13.0322265625,17.5439453125,-8.3935546875
25.053936,-13.1298828125,16.6162109375,-10.2978515625
25.0931609,-12.5439453125,15.0537109375,-12.9345703125
25.1146326,-12.4462890625,13.0517578125,-15.3759765625
25.1572916,-12.6904296875,11.8798828125,-17.8173828125
25.1722869,-12.9833984375,13.9794921875,-18.0615234375
25.2270664,-13.7158203125,18.7646484375,-14.2041015625
25.2471738,-14.4482421875,23.5986328125,-7.8564453125
25.2600379,-14.9853515625,27.4072265625,-1.4599609375
25.308014,-16.3037109375,33.3154296875,4.6435546875
25.3257365,-16.4013671875,38.4912109375,9.0869140625
25.3713419,-18.0126953125,43.6181640625,13.2861328125
25.3912419,-18.6962890625,47.5732421875,15.9228515625
25.4122494,-20.1611328125,49.8193359375,15.3369140625
25.4598314,-21.4794921875,49.0869140625,13.3349609375
25.4721467,-22.5537109375,48.5498046875,10.2587890625
25.5127872,-23.4814453125,48.4033203125,8.1103515625
25.533276,-24.6044921875,46.7431640625,6.1083984375
25.5727073,-25.4345703125,45.8154296875,4.1552734375
25.594711,-26.9970703125,43.1787109375,1.2255859375
25.6371028,-28.1201171875,41.9091796875,-0.2880859375
25.6579503,-27.7783203125,39.4189453125,-3.0712890625
25.6983336,-25.7275390625,36.8798828125,-5.7568359375
25.719147,-23.3349609375,34.9755859375,-8.5888671875
25.7562242,-21.8212890625,32.6318359375,-11.0302734375
25.7772379,-19.0869140625,30.8251953125,-13.4228515625
25.8155668,-17.6220703125,28.6767578125,-15.5712890625
25.8366003,-15.0341796875,26.1865234375,-17.6708984375
25.876739,-13.4228515625,24.7705078125,-19.8681640625
25.8978308,-11.7138671875,22.2314453125,-21.5283203125
25.9382972,-11.3232421875,20.1318359375,-24.3115234375
25.9598839,-11.5185546875,17.7392578125,-25.8251953125
26.0006073,-10.5419921875,16.2255859375,-27.4853515625
26.0205559,-10.6396484375,13.8330078125,-29.9267578125
26.0611761,-11.0302734375,15.3466796875,-29.8291015625
26.0752109,-11.7138671875,19.4970703125,-26.7041015625
26.1159498,-13.0322265625,23.2568359375,-19.7705078125
26.1364572,-13.3251953125,26.3818359375,-13.1787109375
26.2061711,-14.7412109375,30.9228515625,-6.2939453125
26.2096501,-14.8876953125,35.9033203125,-0.7275390625
26.225863,-15.8154296875,39.7119140625,4.6923828125
26.2619734,-16.9384765625,43.3251953125,7.9150390625
26.2883634,-18.4521484375,45.7666015625,10.0146484375
26.328247,-19.4287109375,44.1064453125,9.3798828125
26.3487261,-21.1865234375,43.6669921875,7.5244140625
26.389438,-22.2119140625,43.1787109375,6.0595703125
26.4176009,-23.3349609375,41.7138671875,4.9853515625
26.4399227,-25.1416015625,40.0048828125,3.4716796875
26.4795122,-26.0693359375,38.1982421875,1.9580078125
26.5003954,-27.6806640625,36.0498046875,0.2978515625
26.539136,-28.4130859375,34.0478515625,-2.5830078125
26.5606093,-26.3134765625,31.0693359375,-4.0966796875
26.6048679,-23.5791015625,28.7744140625,-5.9033203125
26.624484,-22.3583984375,26.4794921875,-7.5146484375
26.6643802,-20.0634765625,23.5986328125,-9.4677734375
26.6827769,-18.3544921875,21.9873046875,-11.1767578125
26.7214506,-15.5224609375,19.4482421875,-12.4462890625
26.7429094,-13.3740234375,16.9580078125,-14.0087890625
26.7966636,-11.9580078125,15.0048828125,-16.0595703125
26.8174972,-10.5908203125,13.3935546875,-16.8408203125
26.828932,-10.9814453125,11.7333984375,-18.9892578125
26.871528,-10.7373046875,9.7802734375,-20.1123046875
26.8904867,-10.1025390625,7.2900390625,-21.4794921875
26.9298407,-10.7861328125,6.0693359375,-23.2861328125
26.9512569,-10.6884765625,5.2880859375,-24.2626953125
26.9917828,-11.1767578125,9.3896484375,-22.0166015625
27.0122617,-12.2509765625,14.0771484375,-16.0595703125
27.0524727,-12.5439453125,17.7392578125,-8.4912109375
27.0723624,-13.3740234375,22.2802734375,-1.4111328125
27.1246559,-15.3759765625,26.7236328125,4.3994140625
27.1458693,-15.6689453125,30.2392578125,9.2822265625
27.1605016,-17.1826171875,32.6318359375,13.3349609375
27.2041274,-18.6962890625,35.4638671875,15.9716796875
27.2243701,-19.6728515625,34.6826171875,14.9951171875
27.2650631,-21.1865234375,34.3408203125,13.1884765625
27.2856189,-22.0166015625,33.3642578125,11.7236328125
27.3279471,-23.7255859375,33.0712890625,10.6982421875
27.3487355,-24.8486328125,30.9716796875,9.0380859375
27.3884974,-26.2158203125,29.7998046875,7.3291015625
27.4085719,-28.0712890625,27.5537109375,5.3759765625
27.4467892,-29.4873046875,25.6494140625,3.4228515625
27.4646822,-29.2919921875,23.6474609375,1.7626953125
27.5043518,-25.9716796875,21.5478515625,0.2978515625
27.5267354,-24.5068359375,19.2529296875,-1.6064453125
27.5541773,-23.2861328125,17.2998046875,-3.6572265625
27.5981008,-21.7236328125,16.3232421875,-5.2197265625
27.6170792,-19.9169921875,15.2001953125,-6.9287109375
27.6620562,-17.8173828125,12.7587890625,-8.5400390625
27.6787502,-16.1572265625,12.3193359375,-10.2001953125
27.7171928,-15.6201171875,11.9287109375,-12.2998046875
27.7372039,-15.2294921875,10.7568359375,-14.0087890625
27.7768432,-15.0341796875,10.1220703125,-15.4248046875
27.7976716,-15.0341796875,8.6083984375,-17.0849609375
27.8387386,-15.2294921875,6.2158203125,-18.6962890625
27.8567413,-15.3271484375,5.1904296875,-20.2587890625
27.8957719,-16.6455078125,5.5322265625,-20.5517578125
27.9196218,-16.9384765625,9.8779296875,-18.9892578125
27.9477845,-18.1591796875,15.1025390625,-12.2509765625
27.9896502,-18.6962890625,19.2041015625,-5.0732421875
28.0092452,-19.5751953125,23.5498046875,2.7880859375
28.0496553,-21.5771484375,27.7490234375,9.4775390625
28.0703454,-22.8466796875,32.8271484375,14.6533203125
28.1070449,-23.2861328125,36.6845703125,19.2431640625
28.1279024,-25.5322265625,39.5654296875,21.4404296875
28.1688881,-26.7529296875,39.9072265625,21.3916015625
28.1885008,-28.4619140625,38.8330078125,19.2431640625
28.2288088,-30.3173828125,39.5654296875,17.5341796875
28.2516186,-31.3916015625,39.2724609375,16.2646484375
28.2790084,-33.1982421875,37.6123046875,14.3115234375
28.3069666,-34.8095703125,35.6591796875,12.9931640625
28.3481633,-36.4208984375,34.6337890625,10.6982421875
28.3696348,-38.0322265625,33.1689453125,8.9404296875
28.4096225,-37.9345703125,30.7275390625,6.9384765625
28.4308602,-34.9560546875,27.6025390625,5.0341796875
28.459302,-32.4169921875,25.5029296875,2.9833984375
28.4928651,-31.7822265625,23.9404296875,0.8837890625
28.5226858,-30.1708984375,21.0595703125,-0.8251953125
28.5472365,-28.3642578125,19.3505859375,-2.4365234375
28.5880776,-26.8017578125,17.7392578125,-4.7802734375
28.6109271,-25.1416015625,16.3720703125,-6.0498046875
28.6538977,-23.9208984375,13.9794921875,-8.2958984375
28.6723813,-24.0673828125,12.5146484375,-9.9560546875
28.7024044,-23.7255859375,9.8291015625,-11.4697265625
28.7331525,-23.6767578125,3.6767578125,-13.7158203125
28.762432,-23.7744140625,0.7958984375,-15.2783203125
28.8013207,-24.2138671875,-1.7431640625,-16.9873046875
28.8233596,-24.8974609375,-3.0615234375,-18.3056640625
28.8538038,-25.3369140625,-1.9384765625,-17.8173828125
28.8815751,-26.2646484375,1.9189453125,-13.6181640625
28.9147433,-27.1435546875,5.6298828125,-5.4638671875
28.9426459,-28.1201171875,10.3173828125,1.8115234375
28.9685791,-28.8525390625,13.9794921875,9.9169921875
29.0098387,-30.4150390625,18.8134765625,16.1669921875
29.0489598,-31.6845703125,21.9384765625,21.5380859375
29.0702715,-33.4423828125,25.6005859375,25.5908203125
29.0950678,-34.2724609375,27.7490234375,26.3720703125
29.1230581,-35.5419921875,25.7958984375,25.7861328125
29.157105,-37.2509765625,26.2841796875,23.0517578125
29.1860819,-38.5205078125,25.6005859375,21.6357421875
29.2131677,-39.5947265625,24.5263671875,19.3896484375
29.2468957,-41.4013671875,22.0361328125,17.6806640625
29.2739792,-43.2568359375,20.3759765625,15.5810546875
29.3039285,-44.4287109375,18.3251953125,14.2138671875
29.3345307,-45.5029296875,14.9072265625,11.8212890625
29.3633039,-44.1357421875,12.4169921875,9.2822265625
29.3923128,-40.7177734375,10.2685546875,7.3779296875
29.4277521,-39.0576171875,7.7294921875,5.4736328125
29.4532733,-37.3974609375,5.3369140625,3.2763671875
29.4876547,-35.3466796875,3.2861328125,1.3232421875
29.5350438,-33.4423828125,0.6005859375,-0.2392578125
29.5463297,-31.2451171875,-0.9130859375,-2.5341796875
29.5917195,-29.9267578125,-3.3056640625,-4.4384765625
29.6066082,-28.6083984375,-5.1611328125,-6.0986328125
29.6343081,-28.7548828125,-5.7958984375,-7.6611328125
29.6685882,-28.8525390625,-7.2607421875,-9.2724609375
29.7145167,-28.3154296875,-8.8232421875,-11.4208984375
29.7283791,-28.2666015625,-10.4833984375,-13.2275390625
29.7732779,-28.7060546875,-12.5830078125,-15.5224609375
29.7869087,-29.1943359375,-11.7041015625,-16.3525390625
29.8202819,-30.0244140625,-6.4794921875,-12.8369140625
29.8642495,-31.2451171875,-2.4755859375,-6.2939453125
29.8794811,-31.6845703125,0.3564453125,1.4697265625
29.9243726,-32.1728515625,4.1650390625,7.5244140625
29.9388771,-33.0029296875,8.9501953125,13.3349609375
29.9817845,-33.8330078125,12.8076171875,17.4853515625
30.0029019,-34.2724609375,16.9091796875,20.1220703125
30.044423,-35.5908203125,18.5205078125,20.3173828125
30.0652717,-37.2509765625,18.3740234375,18.4130859375
30.1049562,-37.7880859375,18.1787109375,15.4833984375
30.1189583,-39.5458984375,19.4970703125,13.8232421875
30.1643576,-39.3994140625,18.8623046875,12.4072265625
30.1856843,-41.2060546875,18.9111328125,10.4541015625
30.2076876,-43.0615234375,16.9580078125,8.1591796875
30.2413207,-44.7705078125,15.2490234375,5.9619140625
30.2834263,-45.4052734375,13.2470703125,4.1552734375
30.3029999,-44.1357421875,11.2939453125,1.0791015625
30.3436262,-41.6943359375,8.0712890625,-1.5087890625
30.3639887,-38.6181640625,7.2412109375,-3.6572265625
30.4051291,-37.1533203125,5.1904296875,-5.6103515625
30.4243915,-34.9560546875,3.2861328125,-8.0517578125
30.4632887,-33.6865234375,1.7236328125,-10.5419921875
30.4824792,-31.6357421875,-0.2783203125,-12.6904296875
30.524131,-30.3173828125,-1.6455078125,-15.0341796875
30.5426284,-29.0478515625,-2.1337890625,-17.1337890625
30.5863278,-29.6337890625,-3.5009765625,-18.8916015625
30.6053655,-28.9990234375,-5.0146484375,-19.9658203125
30.6474361,-29.3408203125,-6.6259765625,-23.2373046875
30.6672782,-29.8779296875,-8.6279296875,-25.4345703125
30.7137435,-29.9755859375,-8.2373046875,-26.4599609375
30.7371876,-30.4638671875,-4.9658203125,-25.9716796875
30.7532261,-32.3193359375,-0.3759765625,-20.8935546875
30.7954762,-33.3935546875,2.9443359375,-14.4970703125
30.8140035,-34.0283203125,7.1435546875,-7.7099609375
30.8545427,-35.1025390625,12.2705078125,-1.3134765625
30.8758369,-35.9814453125,16.2744140625,3.0322265625
30.9155219,-36.8603515625,21.0107421875,6.6943359375
30.9369088,-38.6181640625,24.2333984375,9.4775390625
30.9789972,-39.7412109375,26.3330078125,9.4287109375
30.9990149,-40.8154296875,25.1123046875,7.2802734375
31.0413597,-41.3525390625,27.0654296875,4.9853515625
31.0570107,-43.3056640625,26.4794921875,3.3740234375
31.1025768,-44.6240234375,26.2353515625,1.7626953125
31.1123725,-46.2841796875,24.8681640625,0.2001953125
31.1504498,-46.7724609375,23.0126953125,-2.0458984375
31.1745618,-47.5537109375,17.8857421875,-4.0966796875
31.214631,-48.4326171875,16.1279296875,-6.5380859375
31.2350846,-46.6259765625,14.0283203125,-8.5888671875
31.2768724,-42.8662109375,11.6845703125,-9.9560546875
31.2966179,-39.8388671875,10.5126953125,-12.8369140625
31.3368443,-39.2529296875,8.0224609375,-14.5947265625
31.3582729,-36.5185546875,5.5322265625,-15.9619140625
31.3991163,-34.6142578125,3.9697265625,-18.1103515625
31.419522,-32.3193359375,1.5283203125,-19.6728515625
31.4594873,-30.7568359375,0.3076171875,-21.8212890625
31.4813811,-30.2685546875,-1.3037109375,-23.4326171875
31.5191999,-30.4150390625,-2.5732421875,-25.9716796875
31.541407,-30.7568359375,-4.9658203125,-27.1923828125
31.5838775,-30.2197265625,-8.2861328125,-28.8037109375
31.5948354,-30.3173828125,-9.5068359375,-30.9033203125
31.6350095,-30.9033203125,-7.8955078125,-30.7568359375
31.6589704,-31.9775390625,-4.0380859375,-27.6318359375
31.6859499,-31.8310546875,-0.1806640625,-21.2841796875
31.7225836,-33.5400390625,2.7978515625,-13.2275390625
31.746452,-35.0048828125,6.5576171875,-6.9287109375
31.7881168,-35.9814453125,11.0009765625,-0.2392578125
31.811142,-36.5673828125,15.4931640625,4.9853515625
31.853111,-38.2763671875,18.6669921875,8.7939453125
31.8748078,-39.4482421875,22.3779296875,10.9912109375
31.9153958,-40.7177734375,21.4501953125,10.1611328125
31.9343953,-41.8896484375,21.0595703125,8.3544921875
31.9723555,-43.0126953125,20.6201171875,6.6455078125
31.9932478,-44.1357421875,19.5458984375,5.2294921875
32.0333848,-45.5517578125,17.9833984375,3.8134765625
32.0536796,-46.8212890625,17.1533203125,1.6650390625
32.0957519,-47.6513671875,14.9560546875,-0.7275390625
32.1157195,-48.6767578125,11.9775390625,-1.7041015625
32.1596698,-48.8720703125,10.1220703125,-3.8525390625
32.1711894,-46.5283203125,6.8505859375,-5.9521484375
32.2122926,-42.3291015625,4.7509765625,-7.8076171875
32.2331844,-40.4248046875,3.0908203125,-9.5654296875
32.2732803,-37.8857421875,0.6982421875,-11.6162109375
32.2934809,-36.1279296875,-1.5966796875,-12.5439453125
32.3319013,-34.6630859375,-4.1357421875,-14.5458984375
32.3537803,-32.1240234375,-5.8447265625,-15.6689453125
32.3931284,-30.9033203125,-7.6025390625,-16.9873046875
32.4131404,-30.3662109375,-9.1162109375,-18.5498046875
32.4517849,-30.1708984375,-11.5087890625,-19.8681640625
32.4727357,-29.7314453125,-13.3642578125,-21.8212890625
32.5154258,-29.6826171875,-14.4384765625,-22.9931640625
32.5357789,-30.2685546875,-13.9501953125,-23.4814453125
32.5749386,-30.2685546875,-8.6767578125,-21.1376953125
32.5961818,-31.5380859375,-3.5009765625,-15.2294921875
32.6387522,-31.5869140625,-0.7177734375,-6.8310546875
32.6531629,-32.3193359375,4.1162109375,0.4931640625
32.6940583,-33.4423828125,9.4873046875,6.7919921875
32.7152504,-34.7607421875,13.0517578125,11.2353515625
32.7553531,-35.0048828125,17.4462890625,14.6533203125
32.7769138,-36.2744140625,18.7158203125,17.3876953125
32.8177057,-37.2998046875,17.7392578125,16.2646484375
32.8386031,-38.2275390625,16.8115234375,14.3115234375
32.8665881,-39.5458984375,17.4951171875,12.6025390625
32.9077781,-40.0830078125,15.9326171875,11.4794921875
32.92849,-41.3037109375,15.2001953125,9.9169921875
32.9676178,-43.0126953125,13.7841796875,8.1103515625
32.9866992,-43.9404296875,11.7333984375,7.1826171875
33.0286036,-44.9169921875,9.3896484375,5.5224609375
33.0494571,-45.7958984375,6.7041015625,3.0322265625
33.0746441,-45.1123046875,3.2861328125,0.8349609375
33.1128219,-41.8896484375,0.8447265625,-0.8740234375
33.1361591,-39.3505859375,-1.3525390625,-2.4853515625
33.186598,-38.0322265625,-3.0615234375,-4.5849609375
33.2066921,-36.3232421875,-5.6005859375,-6.4892578125
33.2269877,-33.6865234375,-6.8701171875,-8.5400390625
33.2673396,-32.6611328125,-8.6279296875,-10.2490234375
33.2863746,-31.1474609375,-10.2392578125,-11.9091796875
33.3258719,-30.4638671875,-10.9716796875,-13.5693359375
33.3463417,-30.6103515625,-12.2900390625,-14.3505859375
33.389654,-30.4638671875,-12.6806640625,-16.1572265625
33.4087386,-30.2197265625,-12.5830078125,-16.8408203125
33.45163,-30.3173828125,-7.2607421875,-14.3505859375
33.483415,-30.4150390625,-1.2548828125,-8.3935546875
33.4954556,-31.4892578125,1.4306640625,-0.2880859375
33.5358775,-31.7333984375,5.2392578125,7.5244140625
33.5565342,-32.8564453125,10.2197265625,13.9697265625
33.6084481,-33.4423828125,13.9306640625,18.8037109375
33.6294013,-34.3212890625,18.3251953125,22.3681640625
33.6485946,-35.0537109375,20.7177734375,23.6865234375
33.6816068,-36.8603515625,19.9853515625,22.1240234375
33.7091399,-36.7138671875,20.0830078125,19.6826171875
33.7602457,-38.2763671875,20.5224609375,17.9248046875
33.7705108,-39.4482421875,18.9111328125,16.4111328125
33.7998122,-40.2294921875,17.4951171875,14.6044921875
33.853354,-42.1337890625,17.2021484375,13.3837890625
33.8601201,-42.3779296875,15.8349609375,10.6982421875
33.8899066,-44.0380859375,13.3935546875,9.2822265625
33.9310775,-45.5029296875,12.1728515625,7.2314453125
33.9508748,-45.6982421875,9.8291015625,4.5947265625
33.9903034,-41.6455078125,8.3154296875,2.7392578125
34.0130334,-39.5947265625,7.5341796875,0.2978515625
34.0416295,-37.5439453125,5.4345703125,-1.6064453125
34.0693048,-36.1767578125,3.3837890625,-3.2666015625
34.1090979,-34.4677734375,2.0166015625,-5.2685546875
34.1323862,-33.0029296875,1.6748046875,-7.2216796875
34.1623776,-31.3427734375,-1.2548828125,-8.5400390625
34.1939783,-30.4638671875,-2.4755859375,-9.9560546875
34.2204839,-30.7080078125,-4.1845703125,-12.6904296875
34.254362,-31.0498046875,-4.9658203125,-14.3017578125
34.2818298,-30.3173828125,-3.7451171875,-15.6201171875
34.3114212,-30.6103515625,0.8935546875,-11.6162109375
34.3404152,-31.6845703125,6.0693359375,-3.9990234375
34.381148,-31.8798828125,9.8291015625,3.1787109375
34.4022367,-33.0517578125,14.2236328125,9.9169921875
34.4319597,-33.9794921875,18.8134765625,15.5810546875
34.4645539,-34.8095703125,22.4267578125,19.6337890625
34.491322,-35.5908203125,25.0146484375,23.4423828125
34.5255242,-36.8115234375,27.1142578125,23.6865234375
34.5515512,-37.8857421875,26.4306640625,21.4892578125
34.5870541,-39.1552734375,25.5517578125,18.9501953125
34.6140115,-39.9853515625,25.6005859375,16.8505859375
34.6415471,-41.2060546875,23.3056640625,14.7509765625
34.6962904,-42.2802734375,22.2314453125,12.5537109375
34.7020297,-43.7939453125,20.4736328125,10.4052734375
34.7332929,-44.7216796875,18.1298828125,8.2080078125
34.7812846,-46.1376953125,16.4697265625,5.5224609375
34.7947882,-47.0166015625,13.1982421875,3.4716796875
34.8430489,-45.5029296875,10.6591796875,1.2255859375
34.8550527,-42.6220703125,8.1689453125,-0.9716796875
34.8840567,-40.0830078125,5.6298828125,-4.0966796875
34.9141095,-38.0810546875,3.2373046875,-5.9033203125
34.9490439,-36.2255859375,0.6982421875,-7.5634765625
34.9932152,-34.1748046875,-1.8408203125,-9.6142578125
35.0153303,-33.0029296875,-3.6962890625,-11.9091796875
35.0369482,-30.6591796875,-5.5029296875,-12.6904296875
35.063759,-29.5361328125,-7.2607421875,-15.2294921875
35.1112018,-30.2197265625,-8.8232421875,-17.1826171875
35.1316153,-29.0966796875,-10.1904296875,-18.6474609375
35.168994,-29.6826171875,-8.6279296875,-19.0380859375
35.1896845,-29.5849609375,-3.5986328125,-16.0595703125
35.2166953,-29.3896484375,0.3076171875,-10.1513671875
35.2686885,-30.6103515625,3.8720703125,-2.6318359375
35.2794189,-31.0009765625,8.7060546875,3.6669921875
35.306686,-31.6357421875,12.7587890625,8.4521484375
35.3392789,-32.3681640625,17.1533203125,12.8955078125
35.3775421,-33.2470703125,20.9619140625,15.0927734375
35.3999406,-34.3212890625,22.0361328125,15.8740234375
35.447866,-35.0537109375,21.4501953125,13.5302734375
35.4568939,-36.1279296875,20.9619140625,11.2353515625
35.4858872,-37.5439453125,20.6689453125,9.1845703125
35.518946,-37.9345703125,19.0576171875,7.4267578125
35.5488922,-39.1552734375,18.1298828125,5.5224609375
35.5961263,-40.3271484375,15.7373046875,3.5205078125
35.6101957,-41.3037109375,13.6376953125,1.2744140625
35.653631,-42.6220703125,11.4892578125,-0.1416015625
35.6726446,-43.6962890625,8.9990234375,-2.7294921875
35.7127108,-43.2568359375,5.4833984375,-5.5126953125
35.7349621,-40.2294921875,3.3349609375,-6.9775390625
35.7742095,-37.2998046875,1.0888671875,-8.9794921875
35.7964597,-35.7373046875,-0.5224609375,-10.8349609375
35.8366382,-34.3701171875,-2.2802734375,-13.4228515625
35.8506283,-32.3681640625,-3.5498046875,-14.8388671875
35.8953151,-30.1220703125,-4.7216796875,-16.9873046875
35.9153438,-28.7548828125,-6.2353515625,-18.2080078125
35.9556604,-27.7783203125,-7.5537109375,-20.4052734375
35.9770285,-27.9248046875,-9.5556640625,-22.6513671875
36.0201315,-27.8271484375,-11.4111328125,-24.2138671875
36.0291982,-27.4365234375,-10.5810546875,-25.3857421875
36.0763128,-26.7041015625,-6.7236328125,-23.1396484375
36.0970009,-27.8759765625,-2.4267578125,-18.1103515625
36.1333275,-28.8037109375,0.4052734375,-11.3232421875
36.1543852,-28.8037109375,5.0927734375,-5.5615234375
36.1954338,-29.1943359375,8.7060546875,-0.8251953125
36.2163915,-30.4638671875,12.9541015625,2.9345703125
36.2551441,-30.7568359375,17.4462890625,6.0595703125
36.2739718,-31.5380859375,19.3994140625,6.4990234375
36.3133777,-32.8564453125,19.6435546875,5.2294921875
36.3342578,-33.8330078125,20.7177734375,3.2763671875
36.3731132,-35.2001953125,20.3759765625,0.8349609375
36.394678,-36.0791015625,19.7900390625,-1.0693359375
36.4321256,-36.8115234375,19.0576171875,-2.5341796875
36.4536011,-38.1298828125,18.2275390625,-4.0966796875
36.4917083,-39.3017578125,17.2509765625,-5.9521484375
36.5137856,-40.6201171875,14.8583984375,-7.2216796875
36.5570956,-42.1337890625,12.3193359375,-10.0537109375
36.5776582,-43.0126953125,10.3662109375,-12.0068359375
36.6179832,-40.4736328125,7.4853515625,-13.8134765625
36.6387579,-37.5439453125,5.0439453125,-16.2548828125
36.6780051,-36.0791015625,2.7001953125,-17.7197265625
36.6998485,-34.5654296875,0.9423828125,-19.5751953125
36.7394212,-32.4658203125,-0.8154296875,-21.0888671875
36.7587236,-30.7080078125,-2.3779296875,-23.3349609375
36.7987945,-29.2431640625,-3.5986328125,-24.5556640625
36.8211359,-28.6083984375,-4.0380859375,-26.4599609375
36.8630938,-28.6083984375,-6.3818359375,-28.0224609375
36.8834001,-28.5107421875,-6.8701171875,-29.9267578125
36.9223788,-28.4619140625,-6.1376953125,-30.3662109375
36.9425556,-28.7548828125,-1.2060546875,-28.9501953125
36.9789541,-29.0478515625,3.4814453125,-24.1650390625
36.9996527,-29.5849609375,8.1201171875,-16.7919921875
37.0378861,-30.5615234375,12.9541015625,-9.6630859375
37.059085,-31.7822265625,17.6416015625,-3.3642578125
37.1018629,-32.4169921875,21.9873046875,1.5185546875
37.1211803,-33.7353515625,25.6982421875,6.4990234375
37.1644211,-35.2490234375,28.1884765625,8.4033203125
37.1822698,-35.5908203125,29.5068359375,8.9892578125
37.2231003,-36.9091796875,28.2861328125,6.7431640625
37.2427439,-38.5205078125,28.1396484375,5.5712890625
37.2847182,-39.7900390625,26.4794921875,3.4228515625
37.3048095,-40.0341796875,24.2822265625,1.4208984375
37.341945,-41.9873046875,23.4033203125,-0.0927734375
37.3623449,-43.4521484375,21.3037109375,-1.8505859375
37.4007859,-44.9658203125,20.2294921875,-3.3154296875
37.4225136,-45.9912109375,17.2998046875,-5.4638671875
37.462577,-47.6513671875,15.3955078125,-7.3681640625
37.4843854,-45.8935546875,12.2705078125,-9.6630859375
37.5237853,-42.9150390625,8.9013671875,-11.1279296875
37.5428243,-40.0341796875,6.3623046875,-12.7880859375
37.586861,-38.3740234375,3.2373046875,-14.3017578125
37.600913,-37.0068359375,1.6259765625,-16.3037109375
37.6451365,-34.8583984375,-0.4736328125,-17.7685546875
37.6662027,-32.8564453125,-2.0361328125,-19.5263671875
37.7059486,-31.0498046875,-3.7939453125,-20.9912109375
37.7203521,-30.8544921875,-5.9423828125,-22.4560546875
37.7593596,-30.9521484375,-7.6513671875,-23.8232421875
37.7816122,-31.5869140625,-8.5302734375,-25.6787109375
37.818472,-30.8544921875,-7.7978515625,-26.0693359375
37.840453,-30.8544921875,-2.8662109375,-22.7978515625
37.8769453,-32.2216796875,1.6259765625,-16.2060546875
37.902374,-33.3447265625,5.7275390625,-9.0283203125
37.9437785,-33.5400390625,10.6591796875,-1.2158203125
37.9637493,-35.6396484375,15.0537109375,4.8388671875
38.0038626,-35.3955078125,18.5693359375,10.0146484375
38.0245156,-36.8115234375,22.2802734375,13.3837890625
38.0663758,-38.1787109375,23.9892578125,15.1416015625
38.0835382,-39.2529296875,22.5244140625,14.6533203125
38.1224665,-40.1806640625,21.7431640625,12.2119140625
38.1433393,-41.6455078125,20.8154296875,10.0146484375
38.1848741,-42.3779296875,19.8388671875,9.4287109375
38.2056274,-43.3056640625,18.0810546875,7.7197265625
38.2481535,-45.4541015625,17.0068359375,5.7666015625
38.2635138,-45.8935546875,15.1025390625,3.9599609375
38.3174029,-47.6025390625,13.0029296875,1.4208984375
38.3370794,-48.9697265625,10.0244140625,0.3955078125
38.353864,-49.6044921875,8.4619140625,-1.8017578125
38.3946053,-47.6025390625,6.9482421875,-3.8037109375
38.4160364,-44.1845703125,4.9951171875,-6.0009765625
38.4551592,-42.1826171875,2.6025390625,-7.4658203125
38.475139,-40.4736328125,0.9423828125,-9.3701171875
38.5165633,-38.4228515625,-1.1572265625,-11.8115234375
38.5356541,-36.6162109375,-3.0126953125,-13.4228515625
38.5790863,-34.7607421875,-4.8193359375,-14.1552734375
38.5979105,-33.0517578125,-5.9912109375,-16.0107421875
38.6279296,-32.7099609375,-8.4814453125,-17.5732421875
38.6789938,-32.5634765625,-9.9951171875,-20.0634765625
38.7111445,-32.8564453125,-11.6552734375,-21.7724609375
38.7167073,-32.5146484375,-9.3603515625,-22.5048828125
38.7555054,-32.5146484375,-4.9169921875,-18.2568359375
38.7793793,-33.4423828125,-0.5712890625,-11.2744140625
38.8077215,-33.3447265625,3.7744140625,-5.0244140625
38.8554036,-34.7607421875,8.1201171875,1.1279296875
38.8764657,-36.2255859375,12.1728515625,5.4248046875
38.8979908,-36.7626953125,15.9326171875,9.5263671875
38.936867,-37.9833984375,18.0322265625,10.7470703125
38.9658779,-39.0087890625,19.3994140625,10.6494140625
38.9880462,-40.4248046875,16.9580078125,9.5751953125
39.0171054,-41.5966796875,16.3720703125,7.6220703125
39.0582516,-41.7431640625,15.7861328125,6.0595703125
39.0779711,-43.5009765625,14.6142578125,4.8876953125
39.1198707,-44.1845703125,12.9541015625,2.6416015625
39.1386678,-45.4052734375,11.5380859375,0.4931640625
39.1698407,-46.7236328125,9.9267578125,-1.7529296875
39.217052,-48.1884765625,7.2900390625,-3.5107421875
39.2297324,-49.5068359375,5.2392578125,-5.9521484375
39.2581668,-50.4833984375,3.1884765625,-7.6123046875
39.2886223,-48.3349609375,1.6748046875,-9.9072265625
39.3263922,-45.6494140625,-0.3759765625,-11.7138671875
39.3480192,-43.5009765625,-2.3779296875,-13.7158203125
39.3810067,-41.7431640625,-3.9892578125,-15.6201171875
39.4112443,-40.3271484375,-5.3564453125,-17.4755859375
39.4399267,-38.3251953125,-6.5283203125,-19.5751953125
39.469995,-37.5439453125,-7.9931640625,-21.0888671875
39.4999802,-36.1767578125,-9.3115234375,-22.9931640625
39.5337008,-36.0302734375,-10.2880859375,-25.0439453125
39.5613811,-36.4697265625,-11.5576171875,-26.8505859375
39.5911498,-36.2744140625,-13.0712890625,-28.1689453125
39.6224329,-36.0791015625,-9.3603515625,-28.0712890625
39.6554203,-36.3720703125,-3.9404296875,-23.8232421875
39.6809372,-37.5439453125,0.5517578125,-16.9873046875
39.7135542,-37.8369140625,4.9462890625,-10.8837890625
39.7590752,-38.8134765625,9.7802734375,-4.7314453125
39.7797826,-40.1806640625,14.4189453125,0.7861328125
39.8272509,-41.3525390625,18.6669921875,3.8623046875
39.8473231,-43.0126953125,21.8408203125,6.6943359375
39.8616835,-43.3544921875,23.8916015625,6.6455078125
39.8931049,-44.2333984375,23.5986328125,5.2783203125
39.9223093,-45.9423828125,23.2080078125,2.9345703125
39.9558886,-46.6748046875,23.5009765625,0.9814453125
40.0016525,-47.9931640625,20.9619140625,-0.5322265625
40.020827,-49.2138671875,20.1318359375,-2.2900390625
40.043577,-50.4345703125,18.5693359375,-4.0478515625
40.0745054,-52.1435546875,17.4951171875,-5.9033203125
40.1041477,-52.8759765625,15.2001953125,-8.2470703125
40.1579152,-53.9013671875,12.7099609375,-10.3955078125
40.1795796,-55.2197265625,10.4150390625,-12.0068359375
40.1976905,-53.0224609375,8.5107421875,-15.0830078125
40.2242007,-49.8974609375,6.5576171875,-16.5966796875
40.254138,-47.6025390625,5.2392578125,-18.2080078125
40.3021764,-45.9423828125,2.8466796875,-20.3076171875
40.322853,-43.9892578125,0.2587890625,-22.6025390625
40.3461986,-41.9873046875,-2.0849609375,-23.1396484375
40.3755885,-40.2294921875,-4.0869140625,-25.9228515625
40.4248842,-39.3505859375,-7.7001953125,-27.5830078125
40.4454247,-38.3740234375,-9.7509765625,-28.7548828125
40.4669591,-38.6669921875,-10.9228515625,-31.0986328125
40.4957476,-38.5205078125,-12.6318359375,-31.7333984375
40.5410275,-38.9599609375,-9.0673828125,-31.0009765625
40.5600402,-38.9111328125,-4.1357421875,-26.4111328125
40.6023696,-39.4970703125,-0.5712890625,-20.0634765625
40.6240326,-40.6201171875,3.1396484375,-12.6904296875
40.6620046,-41.5478515625,7.7783203125,-6.4404296875
40.682862,-41.7431640625,11.2451171875,-1.3134765625
40.7241053,-43.0615234375,15.5419921875,1.8603515625
40.7447456,-44.1357421875,19.3505859375,4.0576171875
40.7861594,-45.0146484375,19.7900390625,4.4482421875
40.798288,-46.3818359375,19.0576171875,2.8369140625
40.8369455,-47.0166015625,19.0087890625,0.7373046875
40.8605406,-47.8466796875,18.6181640625,-1.1669921875
40.9115144,-48.4814453125,17.4462890625,-2.5341796875
40.932381,-49.8974609375,16.1767578125,-4.4384765625
40.9497582,-51.0205078125,14.6142578125,-6.0498046875
40.9971608,-51.8017578125,13.8818359375,-7.6123046875
41.0171247,-52.8271484375,11.6357421875,-10.0048828125
41.0591576,-53.3642578125,8.9501953125,-12.2021484375
41.0795662,-53.9013671875,7.0458984375,-14.5947265625
41.0991984,-51.7041015625,4.3115234375,-16.4990234375
41.1325643,-48.4326171875,2.8466796875,-18.3056640625
41.1577061,-46.4306640625,1.1865234375,-20.1123046875
41.2046387,-44.5751953125,-0.9619140625,-22.0654296875
41.2256973,-42.2802734375,-2.9638671875,-24.5068359375
41.2727132,-39.9853515625,-4.7705078125,-25.4833984375
41.29737,-37.7392578125,-6.7724609375,-27.1435546875
41.3094549,-36.2744140625,-8.4326171875,-28.9990234375
41.3621873,-34.9072265625,-10.8740234375,-30.8056640625
41.3823007,-35.1025390625,-11.7041015625,-31.9287109375
41.4015039,-34.3212890625,-11.8017578125,-34.1259765625
41.4454436,-33.7353515625,-7.4560546875,-31.9775390625
41.4669506,-33.8330078125,-3.0126953125,-27.1923828125
41.5056334,-34.7119140625,0.0146484375,-20.6005859375
41.5272645,-34.9072265625,4.2138671875,-14.9853515625
41.5672706,-35.2978515625,7.9736328125,-9.2236328125
41.5883522,-36.0791015625,12.0751953125,-4.9755859375
41.6276796,-36.5185546875,15.0048828125,-2.5341796875
41.6491786,-38.2763671875,16.4697265625,-1.0693359375
41.6712508,-38.3251953125,14.9072265625,-1.8505859375
41.7031338,-39.8876953125,14.6142578125,-4.5849609375
41.7326958,-40.5712890625,13.7353515625,-5.8544921875
41.7743641,-41.4990234375,12.0263671875,-7.3681640625
41.7949567,-42.6708984375,11.8798828125,-8.5888671875
41.8345619,-42.9638671875,10.4638671875,-10.1513671875
41.8571564,-44.2822265625,9.5361328125,-13.0810546875
41.89814,-45.2099609375,7.1923828125,-14.3017578125
41.9190326,-46.3818359375,4.8974609375,-16.8408203125
41.9688039,-48.0419921875,3.2861328125,-19.2333984375
41.9905119,-48.3837890625,1.3818359375,-21.1865234375
42.0003778,-46.5283203125,-0.3271484375,-22.8955078125
42.0389217,-43.3544921875,-2.1337890625,-24.3115234375
42.0640179,-42.2314453125,-4.5751953125,-27.2412109375
42.1172165,-40.7666015625,-6.3818359375,-28.4130859375
42.1374888,-38.2275390625,-7.3583984375,-30.2197265625
42.1523913,-37.2021484375,-9.7021484375,-32.0263671875
42.1943466,-34.6142578125,-11.0693359375,-33.6376953125
42.2151815,-33.1005859375,-12.7294921875,-35.7373046875
42.2565468,-33.0029296875,-13.9501953125,-37.9345703125
42.2780451,-32.6611328125,-15.1708984375,-39.5458984375
42.3212737,-32.3193359375,-10.8251953125,-39.1552734375
42.3403175,-31.9287109375,-5.5029296875,-34.5654296875
42.383517,-32.0263671875,-1.7431640625,-28.8525390625
42.4039971,-33.1005859375,2.9931640625,-22.4072265625
42.4246954,-33.3935546875,7.8271484375,-17.6220703125
42.4576277,-34.0771484375,13.1005859375,-12.4951171875
42.4956949,-34.6142578125,16.8115234375,-8.9306640625
42.5174514,-35.7861328125,20.8642578125,-6.8798828125
42.5572208,-36.6650390625,21.0107421875,-7.3193359375
42.577942,-37.2998046875,20.7177734375,-8.8818359375
42.6179344,-38.1298828125,21.0107421875,-10.8837890625
42.6390757,-39.2041015625,19.5458984375,-12.0068359375
42.6792062,-40.4248046875,18.4228515625,-13.6669921875
42.6999644,-41.2060546875,17.2509765625,-15.3271484375
42.7396586,-42.2802734375,15.8349609375,-16.6943359375
42.7625568,-43.7451171875,13.4912109375,-18.5498046875
42.7904759,-44.8193359375,11.7822265625,-21.4306640625
42.846362,-46.0888671875,9.1943359375,-23.5791015625
42.8662765,-47.1630859375,7.3388671875,-25.9228515625
42.8789028,-46.8701171875,5.9228515625,-27.3388671875
42.9185856,-44.3310546875,3.5791015625,-29.6826171875
42.939701,-42.1826171875,2.8466796875,-31.5380859375
42.9803433,-40.6201171875,1.0400390625,-33.4423828125
43.0030889,-39.3505859375,-0.7177734375,-35.8837890625
43.0413152,-37.2021484375,-1.5966796875,-37.2998046875
43.0597467,-36.0302734375,-3.3544921875,-39.2529296875
43.0984925,-34.3701171875,-5.2587890625,-41.0107421875
43.1202771,-33.6865234375,-7.4560546875,-42.7685546875
43.157982,-33.6865234375,-9.3115234375,-44.9169921875
43.1816813,-33.7353515625,-14.6826171875,-45.5029296875
43.2249547,-33.7353515625,-8.8232421875,-44.1357421875
43.2460713,-33.5888671875,-3.8916015625,-39.6435546875
43.2993483,-35.1025390625,-1.1572265625,-33.1494140625
43.303672,-35.9326171875,2.1142578125,-26.9970703125
43.3457114,-36.1767578125,6.6552734375,-20.5517578125
43.3663553,-37.0556640625,9.6337890625,-16.2548828125
43.4081079,-38.3740234375,13.0029296875,-12.2998046875
43.4239422,-39.7900390625,15.6396484375,-10.7373046875
43.472702,-41.2548828125,14.3701171875,-10.6396484375
43.480559,-41.8408203125,14.6630859375,-12.0068359375
43.5186633,-43.3056640625,13.5400390625,-14.2041015625
43.5427225,-44.4775390625,11.7333984375,-15.3271484375
43.5849227,-45.6005859375,9.8779296875,-16.8408203125
43.6071957,-46.9189453125,8.6083984375,-18.5498046875
43.6331567,-47.7490234375,7.0947265625,-20.2099609375
43.6753966,-49.3603515625,4.9462890625,-22.0166015625
43.6960912,-50.2392578125,2.2607421875,-24.3603515625
43.7368489,-51.8017578125,-0.8642578125,-25.7275390625
43.7574238,-53.0224609375,-3.4033203125,-27.9736328125
43.7854723,-52.6806640625,-4.7705078125,-30.0244140625
43.8377117,-49.0673828125,-6.6259765625,-31.8310546875
43.8673473,-46.8701171875,-7.7978515625,-33.5400390625
43.8723009,-44.4287109375,-9.9951171875,-35.6396484375
43.9123853,-43.5009765625,-11.6552734375,-37.2021484375
43.9355145,-41.5478515625,-14.1455078125,-38.7646484375
43.9709622,-39.9853515625,-15.6591796875,-41.0595703125
43.9982196,-38.8134765625,-18.4912109375,-42.3779296875
44.0255488,-37.7392578125,-20.2490234375,-44.7705078125
44.0598974,-37.6416015625,-23.6181640625,-45.6005859375
44.0862386,-38.2763671875,-23.6181640625,-47.4560546875
44.131554,-37.9345703125,-19.8095703125,-45.1611328125
44.1432624,-38.2763671875,-14.8779296875,-40.5224609375
44.180592,-38.2763671875,-12.0947265625,-34.0283203125
44.2047478,-38.9111328125,-7.7978515625,-27.9736328125
44.2466772,-39.8876953125,-4.0380859375,-22.3583984375
44.2687203,-41.0107421875,0.1611328125,-17.7197265625
44.2947217,-41.4990234375,3.6767578125,-13.9111328125
44.3347502,-42.7685546875,6.3134765625,-12.2021484375
44.3548434,-44.2333984375,6.3623046875,-12.5927734375
44.3933277,-44.7216796875,5.7763671875,-13.5205078125
44.4166261,-46.5283203125,4.6533203125,-15.6201171875
44.4558145,-47.3583984375,3.0419921875,-17.0361328125
44.4767447,-47.7001953125,1.6748046875,-18.3544921875
44.5087737,-49.4580078125,0.1123046875,-19.5751953125
44.5377825,-51.0205078125,-1.0595703125,-21.5283203125
44.5700035,-52.1923828125,-2.7197265625,-23.7744140625
44.5977957,-52.8271484375,-5.7958984375,-26.1181640625
44.6395698,-53.9501953125,-7.8955078125,-27.3388671875
44.6596618,-55.3662109375,-9.7509765625,-29.1943359375
44.7014237,-55.2685546875,-11.9970703125,-31.3427734375
44.7174055,-52.0458984375,-14.1455078125,-32.6123046875
44.7502049,-49.3115234375,-15.9521484375,-34.4189453125
44.7889784,-47.9443359375,-17.9541015625,-36.5673828125
44.8097547,-46.3818359375,-20.0048828125,-37.4462890625
44.8402539,-44.4287109375,-23.0322265625,-39.1552734375
44.8702193,-42.5732421875,-23.9111328125,-41.0595703125
44.9034264,-41.5478515625,-26.2548828125,-42.4267578125
44.9313756,-41.0107421875,-27.7685546875,-43.9892578125
44.960579,-41.4501953125,-28.7939453125,-45.6005859375
44.9914767,-41.4013671875,-26.0595703125,-45.1123046875
45.0216793,-41.1083984375,-21.3232421875,-42.5732421875
45.0515606,-41.2548828125,-16.9775390625,-36.1279296875
45.0812707,-41.8408203125,-14.1943359375,-29.7314453125
45.1122004,-41.9873046875,-9.5556640625,-24.7021484375
45.1432092,-43.0615234375,-6.4794921875,-20.3564453125
45.1722771,-44.0380859375,-2.2314453125,-16.3037109375
45.2009763,-44.8681640625,0.3564453125,-13.2275390625
45.2310085,-46.1865234375,1.6259765625,-13.3740234375
45.2629187,-47.4072265625,0.7958984375,-14.8388671875
45.2950976,-47.8955078125,1.3818359375,-17.0361328125
45.3511524,-49.2626953125,1.7724609375,-17.5732421875
45.3547282,-50.5322265625,-0.0341796875,-18.8916015625
45.380533,-51.7041015625,0.8935546875,-20.7958984375
45.4322191,-52.2900390625,0.4541015625,-22.0166015625
45.450664,-52.9736328125,-1.4013671875,-23.3837890625
45.4933946,-54.4384765625,-3.2080078125,-25.7763671875
45.5023984,-56.0009765625,-4.9658203125,-27.5341796875
45.5525081,-56.8798828125,-5.8935546875,-30.1220703125
45.5711858,-58.1982421875,-8.4814453125,-31.5380859375
45.6142889,-56.9287109375,-9.0185546875,-33.7353515625
45.6337554,-53.2666015625,-11.1669921875,-35.4931640625
45.6569785,-50.7275390625,-12.4853515625,-38.0322265625
45.6980182,-49.5068359375,-13.5595703125,-39.7412109375
45.7200152,-47.7490234375,-14.2919921875,-41.5966796875
45.7593601,-46.1865234375,-15.8056640625,-44.0869140625
45.7803302,-45.1611328125,-16.4892578125,-45.3076171875
45.8215544,-43.2080078125,-18.7353515625,-47.6513671875
45.8366762,-43.3056640625,-19.7119140625,-49.5556640625
45.8845102,-43.3544921875,-17.5634765625,-50.2880859375
45.9027888,-43.6962890625,-12.8759765625,-47.4560546875
45.9430958,-43.6962890625,-8.3837890625,-41.4013671875
45.9638581,-44.3310546875,-4.3310546875,-35.3466796875
46.0047764,-44.7705078125,0.6005859375,-29.0966796875
46.0238668,-45.5029296875,3.7744140625,-23.9697265625
46.0645567,-46.6259765625,7.8759765625,-19.7216796875
46.0836775,-47.3583984375,11.6357421875,-16.5478515625
46.1249331,-48.8232421875,12.1728515625,-15.7177734375
46.145683,-50.4345703125,10.7080078125,-15.8642578125
46.1690675,-51.1181640625,10.6103515625,-17.3779296875
46.1949397,-52.1923828125,9.8779296875,-19.2822265625
46.2435653,-53.9990234375,7.5341796875,-20.7958984375
46.2625483,-54.3896484375,6.4599609375,-22.2119140625
46.3042923,-55.5615234375,5.3857421875,-23.4326171875
46.3271147,-56.7822265625,3.9208984375,-24.7509765625
46.3471018,-58.4912109375,2.3583984375,-27.1435546875
46.3823033,-59.4189453125,0.2099609375,-28.9501953125
46.422964,-61.2744140625,-1.9873046875,-30.5615234375
46.4433645,-62.1044921875,-4.8681640625,-32.3193359375
46.4840604,-60.6884765625,-6.9677734375,-34.2236328125
46.5036688,-57.3681640625,-10.0927734375,-36.3232421875
46.5455772,-54.7802734375,-13.3642578125,-38.1787109375
46.5640871,-52.5341796875,-15.6591796875,-40.1318359375
46.6043698,-50.4345703125,-18.3935546875,-41.2060546875
46.6252345,-48.6767578125,-20.1025390625,-42.9150390625
46.6671128,-46.7724609375,-22.0556640625,-44.7216796875
46.6884286,-44.9169921875,-24.3505859375,-45.9912109375
46.7094526,-43.7451171875,-25.1318359375,-47.0166015625
46.7408808,-44.0380859375,-26.4990234375,-49.0673828125
46.7818688,-44.0869140625,-21.8603515625,-47.8955078125
46.8019757,-44.2822265625,-17.2705078125,-43.6962890625
46.8393466,-44.5263671875,-14.4873046875,-37.0556640625
46.859913,-44.8193359375,-10.6787109375,-30.8056640625
46.9023063,-45.8447265625,-7.7001953125,-24.7998046875
46.9216717,-46.9189453125,-2.7197265625,-19.4287109375
46.9592648,-47.8466796875,0.8935546875,-15.7666015625
46.9844218,-48.1884765625,4.7998046875,-12.6416015625
47.0254293,-49.1650390625,4.3603515625,-12.7392578125
47.0467264,-50.1904296875,3.8720703125,-14.2529296875
47.088629,-51.0205078125,3.9697265625,-15.3759765625
47.108435,-52.3388671875,2.7001953125,-16.2060546875
47.1477018,-53.3642578125,1.3818359375,-17.4755859375
47.1693506,-53.4130859375,-0.2783203125,-19.0869140625
47.209461,-54.5361328125,-2.0361328125,-19.5263671875
47.229073,-55.7080078125,-4.5263671875,-21.7724609375
47.2657478,-56.6357421875,-6.7236328125,-23.2373046875
47.2881234,-57.5146484375,-9.9951171875,-25.3369140625
47.3327396,-58.4423828125,-12.1435546875,-26.7529296875
47.3517683,-58.7841796875,-14.3408203125,-28.9501953125
47.3910641,-57.5146484375,-16.3916015625,-30.2685546875
47.4109568,-53.6083984375,-19.2724609375,-31.3427734375
47.4523644,-51.1181640625,-20.5419921875,-33.8818359375
47.4722328,-48.6767578125,-21.8603515625,-35.8349609375
47.5105841,-46.3330078125,-23.4228515625,-36.8115234375
47.5328993,-45.0634765625,-24.7412109375,-38.4716796875
47.5559849,-42.6708984375,-26.6455078125,-40.2783203125
47.586487,-40.5224609375,-29.1845703125,-41.6455078125
47.6295159,-40.1806640625,-30.0634765625,-42.8173828125
47.6481287,-40.0830078125,-26.5966796875,-42.6708984375
47.6884014,-39.4970703125,-21.2744140625,-39.3017578125
47.7089496,-39.1064453125,-17.9541015625,-32.7587890625
47.7496041,-38.9111328125,-14.7802734375,-26.7529296875
47.7713594,-39.1064453125,-10.1904296875,-20.9423828125
47.8107426,-39.9853515625,-5.4052734375,-15.9130859375
47.8321778,-40.3759765625,-1.9384765625,-12.2021484375
47.872996,-41.1572265625,0.7958984375,-10.3466796875
47.8959463,-42.1337890625,0.8447265625,-10.3955078125
47.9173504,-42.3291015625,0.3564453125,-11.4697265625
47.9589325,-42.8662109375,-0.2294921875,-13.9599609375
47.9783435,-44.8193359375,-0.8154296875,-14.8876953125
48.0180197,-44.9658203125,-2.0849609375,-15.8642578125
48.0395233,-45.8447265625,-2.3779296875,-17.5732421875
48.0772065,-47.0654296875,-4.5263671875,-19.7216796875
48.0981129,-48.2861328125,-4.7216796875,-20.1123046875
48.1345128,-49.2626953125,-6.8212890625,-23.1396484375
48.1584885,-50.6787109375,-8.8232421875,-24.7021484375
48.20268,-51.5087890625,-10.8251953125,-26.7529296875
48.2215851,-52.6806640625,-12.6806640625,-27.6806640625
48.2594237,-51.7529296875,-14.3896484375,-29.8779296875
48.2806252,-49.1650390625,-15.8544921875,-31.9287109375
48.3185967,-46.7724609375,-17.6611328125,-33.5888671875
48.3389731,-44.6728515625,-18.7353515625,-34.7607421875
48.3772936,-42.5732421875,-19.9072265625,-36.8603515625
48.3980469,-40.8154296875,-20.8349609375,-38.3740234375
48.439086,-39.0087890625,-22.5927734375,-40.2783203125
48.4620951,-38.2275390625,-23.9111328125,-40.9619140625
48.5047689,-36.7626953125,-24.7412109375,-42.5732421875
48.5178343,-37.1044921875,-21.2744140625,-42.6708984375
48.5618521,-36.9091796875,-15.8544921875,-39.3994140625
48.5817444,-36.9091796875,-11.8505859375,-32.6611328125
48.6197532,-37.1533203125,-7.6025390625,-25.8251953125
48.6418938,-37.8857421875,-2.2802734375,-19.2822265625
48.6826307,-38.2763671875,2.6025390625,-14.7900390625
48.7018894,-39.3505859375,6.3623046875,-10.6396484375
48.742592,-40.1806640625,10.6103515625,-7.9052734375
48.7628049,-40.9619140625,12.5634765625,-7.1240234375
48.8014683,-42.3779296875,12.0751953125,-8.1982421875
48.8241504,-43.2568359375,11.9775390625,-10.1513671875
48.8631944,-44.0380859375,11.1474609375,-11.9091796875
48.8843255,-45.7958984375,8.5107421875,-12.8857421875
48.9113507,-46.5283203125,7.2900390625,-14.9365234375
48.9553287,-48.0419921875,4.6044921875,-16.2060546875
48.9735242,-48.9697265625,4.2626953125,-17.7685546875
49.0160752,-50.5810546875,2.7490234375,-19.8681640625
49.0350584,-51.8994140625,0.6005859375,-21.3818359375
49.0620481,-52.9736328125,-1.6455078125,-23.5791015625
49.104484,-53.6083984375,-4.0869140625,-25.3857421875
49.1240306,-54.2919921875,-7.3095703125,-27.7783203125
49.1625547,-51.1181640625,-9.9462890625,-29.7802734375
49.1836129,-48.1884765625,-11.5576171875,-31.1474609375
49.2265353,-45.7958984375,-14.2919921875,-32.7099609375
49.2406932,-44.2822265625,-17.6123046875,-33.5888671875
49.2822037,-42.4755859375,-18.4912109375,-35.8349609375
49.3052475,-39.9853515625,-21.2255859375,-37.3486328125
49.3454366,-38.3251953125,-23.1298828125,-38.9111328125
49.3658995,-37.2509765625,-23.7158203125,-40.1806640625
49.4023423,-37.2021484375,-22.9833984375,-41.3525390625
49.4251968,-38.0322265625,-18.9794921875,-38.8623046875
49.4624992,-37.3974609375,-15.8544921875,-33.6376953125
49.4834301,-37.6416015625,-11.6064453125,-26.6064453125
49.5225279,-38.0810546875,-7.3095703125,-20.0146484375
49.5477451,-39.1064453125,-2.4755859375,-15.1318359375
49.5754077,-40.0830078125,2.3095703125,-10.2001953125
49.6136348,-40.5224609375,6.6064453125,-7.1728515625
49.6371029,-42.3291015625,9.6337890625,-5.5126953125
49.6656928,-43.4033203125,8.9990234375,-5.7568359375
49.6970947,-44.5263671875,9.3408203125,-8.2470703125
49.7377442,-45.9912109375,9.1455078125,-10.0537109375
49.7575947,-46.6259765625,7.2412109375,-11.9580078125
49.7881297,-48.1396484375,5.5810546875,-13.3251953125
49.8278524,-49.1650390625,4.2138671875,-15.2783203125
49.8488819,-50.8740234375,1.6259765625,-16.6455078125
49.8769221,-51.3134765625,-2.1337890625,-19.3310546875
49.9167092,-52.7294921875,-3.4033203125,-21.0888671875
49.9390013,-54.4384765625,-7.2119140625,-22.9443359375
49.9687518,-55.7568359375,-8.4326171875,-25.0439453125
49.9973709,-56.0986328125,-11.3134765625,-26.7529296875
50.0307134,-55.3173828125,-14.5849609375,-28.9013671875
50.0586688,-52.0458984375,-16.8798828125,-30.8544921875
50.0857357,-49.2138671875,-18.4912109375,-32.2705078125
50.1286276,-47.4072265625,-19.3701171875,-34.6142578125
50.1486478,-45.3564453125,-21.5673828125,-36.0791015625
50.1797347,-43.4521484375,-22.5927734375,-37.7880859375
50.2097509,-41.7431640625,-25.2783203125,-39.1064453125
50.2394496,-39.5947265625,-26.5966796875,-41.6943359375
50.2709785,-39.1552734375,-26.5966796875,-42.9150390625
50.3015067,-39.7900390625,-21.9580078125,-42.0361328125
50.3317396,-39.4970703125,-16.9775390625,-37.7392578125
50.3778457,-39.6923828125,-12.6318359375,-32.3681640625
50.3979541,-39.9853515625,-7.5537109375,-26.6064453125
50.419384,-40.7177734375,-2.7685546875,-21.4794921875
50.4523987,-41.1572265625,1.1376953125,-17.7197265625
50.4823985,-41.9384765625,4.0673828125,-15.0341796875
50.511441,-42.4267578125,6.2646484375,-13.4716796875
50.5413665,-42.7197265625,4.5068359375,-14.5947265625
50.5693764,-44.4775390625,3.9208984375,-16.0107421875
50.6054373,-44.8193359375,2.2607421875,-18.0615234375
50.6305309,-46.3330078125,1.2841796875,-19.2333984375
50.6625076,-47.5048828125,1.0888671875,-20.6005859375
50.6949852,-48.9208984375,-0.1318359375,-22.8466796875
50.7393248,-49.2626953125,-1.9873046875,-24.5068359375
50.7604456,-51.0205078125,-3.3056640625,-26.3134765625
50.8020965,-52.3876953125,-4.6240234375,-27.9736328125
50.8225039,-53.5107421875,-7.1142578125,-30.4638671875
50.8435295,-54.2919921875,-8.9697265625,-31.3916015625
50.8728779,-55.9521484375,-10.4345703125,-33.9306640625
50.9055847,-56.3427734375,-12.3876953125,-36.4208984375
50.934113,-53.6083984375,-14.1943359375,-37.6904296875
50.9648808,-50.8740234375,-15.9521484375,-40.0341796875
50.9930638,-48.8232421875,-16.9775390625,-41.6943359375
51.0246699,-47.7490234375,-18.6865234375,-43.2568359375
51.0507882,-45.9912109375,-20.2490234375,-44.2333984375
51.0863719,-44.7705078125,-22.4462890625,-46.6748046875
51.1164008,-43.0615234375,-23.5693359375,-49.3115234375
51.1450768,-42.1826171875,-24.2529296875,-49.4580078125
51.1944107,-42.1826171875,-19.2724609375,-48.9208984375
51.2135689,-42.1337890625,-13.6083984375,-44.9658203125
51.2375927,-41.9873046875,-9.9462890625,-39.6923828125
51.2776511,-42.7197265625,-5.1123046875,-33.7353515625
51.2966372,-42.9638671875,-0.1806640625,-28.8037109375
51.3243397,-44.5751953125,4.5556640625,-24.5068359375
51.3587124,-45.1123046875,9.4384765625,-21.2841796875
51.384708,-46.5283203125,13.4423828125,-19.6240234375
51.4334719,-47.3095703125,13.6376953125,-18.5986328125
