t,y,y1,y2
0.00679929999999995,0.185546875,0.185546875,0.185546875
0.0111207000000002,0.185546875,0.185546875,0.185546875
0.0167003000000001,0.185546875,0.185546875,0.185546875
0.0202852,0.185546875,0.185546875,0.185546875
0.0238925999999999,0.185546875,0.185546875,0.185546875
0.0275457000000001,0.185546875,0.185546875,0.185546875
0.028762,73.6279296875,86.8017578125,82.9443359375
0.0319023999999999,-13.1396484375,-54.3603515625,-28.9892578125
0.0333641999999998,-13.4814453125,-54.2626953125,-32.1142578125
0.0345043,-13.2861328125,-55.2880859375,-35.7763671875
0.0355799999999999,-13.6767578125,-56.0205078125,-40.9521484375
0.0366515000000001,-13.6767578125,-56.6064453125,-43.7353515625
0.0378634999999998,-13.4814453125,-55.4833984375,-39.0966796875
0.0388693,-14.3603515625,-53.5791015625,-21.3232421875
0.0400130999999999,-15.1904296875,-52.9931640625,-1.4013671875
0.0416432000000002,-15.6298828125,-52.6025390625,10.2197265625
0.0426389,-16.3623046875,-53.2373046875,13.3935546875
0.0444062999999999,-17.1923828125,-52.8466796875,10.6103515625
0.0454583,-17.7294921875,-53.1884765625,4.6044921875
0.0478881000000002,-18.5595703125,-54.1162109375,-3.9404296875
0.0498892,-18.0712890625,-53.7744140625,-11.2158203125
0.0517839000000002,-16.1669921875,-54.1650390625,-16.0009765625
0.0531207999999999,-13.3349609375,-54.5068359375,-17.5146484375
0.0546228000000002,-11.4306640625,-54.8974609375,-17.3193359375
0.0562773999999999,-11.2841796875,-54.9462890625,-17.1240234375
0.0575477000000002,-11.5283203125,-55.3857421875,-18.2958984375
0.0590833000000002,-11.9189453125,-56.2646484375,-20.1025390625
0.0600860000000001,-12.4072265625,-56.6064453125,-22.8369140625
0.0619961,-13.5791015625,-56.5576171875,-26.0595703125
0.0636698,-13.6767578125,-58.0224609375,-30.0146484375
0.0655329999999998,-13.4814453125,-59.0478515625,-33.1396484375
0.0668228000000002,-13.9697265625,-59.1943359375,-37.0947265625
0.0679178,-13.8720703125,-58.7548828125,-37.3388671875
0.0694058000000002,-14.6533203125,-56.9970703125,-24.8876953125
0.0704313999999999,-15.2392578125,-55.9716796875,-5.4052734375
0.0718785,-15.7275390625,-55.2880859375,10.4150390625
0.0731114000000002,-16.3623046875,-55.4833984375,16.8115234375
0.0810178000000001,-16.4111328125,-56.2646484375,16.0791015625
0.0820284,-17.0458984375,-56.3134765625,10.8056640625
0.0994613000000002,-17.8271484375,-56.6552734375,4.6533203125
0.1004466,-18.2177734375,-57.2900390625,-3.8427734375
0.1014192,-16.8994140625,-57.1435546875,-8.8720703125
0.1024025,-14.5068359375,-57.7294921875,-11.2158203125
0.1033471,-12.2119140625,-57.4365234375,-10.9716796875
0.1043282,-10.9423828125,-57.4853515625,-9.5556640625
0.1052766,-11.7236328125,-58.6083984375,-9.3115234375
0.1062201,-11.4306640625,-58.4619140625,-11.6552734375
0.107211,-12.0166015625,-59.5849609375,-14.2431640625
0.1081595,-12.7978515625,-59.9267578125,-17.8076171875
0.1090994,-13.0908203125,-60.0732421875,-22.0556640625
0.1100502,-13.3349609375,-60.9033203125,-25.8642578125
0.110985,-13.5302734375,-61.5869140625,-29.9169921875
0.1119641,-12.6025390625,-61.3427734375,-32.1142578125
0.1130291,-13.7255859375,-60.0244140625,-22.2021484375
0.1139961,-13.4326171875,-58.5595703125,-3.7939453125
0.1155399,-14.2626953125,-57.9736328125,13.0517578125
0.1169348,-15.0439453125,-58.0712890625,20.2294921875
0.117937,-15.4833984375,-58.1689453125,20.4736328125
0.1196752,-15.9228515625,-58.4619140625,15.7373046875
0.1207288,-16.8505859375,-58.6572265625,7.8271484375
0.1222079,-17.3876953125,-59.6826171875,-1.0107421875
0.1232183,-17.0458984375,-60.1708984375,-7.8466796875
0.1241824,-14.1162109375,-59.8779296875,-10.6298828125
0.1253362,-12.2119140625,-59.4384765625,-12.3876953125
0.1263244,-10.6494140625,-60.7080078125,-13.3154296875
0.12726,-10.0146484375,-60.9521484375,-13.7060546875
0.1282374,-10.1123046875,-61.0009765625,-14.9755859375
0.1292853,-10.6005859375,-61.5869140625,-18.1982421875
0.1302768,-11.3818359375,-61.9287109375,-20.5419921875
0.1313619,-11.8212890625,-62.3193359375,-24.2529296875
0.1323723,-12.4072265625,-63.1982421875,-26.6943359375
0.1333394,-12.5537109375,-63.8330078125,-30.3076171875
0.1342652,-12.5537109375,-63.9794921875,-32.5537109375
0.1352692,-12.4072265625,-62.6123046875,-24.1064453125
0.1362084,-12.8466796875,-60.4150390625,-3.2568359375
0.1371279,-13.1884765625,-59.9755859375,16.6162109375
0.1380646,-14.2138671875,-59.6826171875,28.6279296875
0.1389986,-14.3603515625,-60.5126953125,31.0693359375
0.139947,-16.0205078125,-60.4150390625,27.7001953125
0.1408765,-16.1181640625,-61.0009765625,22.2314453125
0.1418057,-16.5576171875,-61.3916015625,13.6865234375
0.1427308,-17.4853515625,-62.0263671875,6.6064453125
0.1436704,-14.9462890625,-61.8310546875,1.5771484375
0.1445997,-11.9189453125,-61.9287109375,-0.4736328125
0.1455244,-10.1123046875,-62.3193359375,-1.0107421875
0.1464838,-9.3798828125,-62.7099609375,-1.2548828125
0.1475852,-9.8681640625,-62.9052734375,-2.5244140625
0.1485118,-9.7216796875,-63.8330078125,-5.0634765625
0.1494924,-10.7470703125,-64.2724609375,-8.1884765625
0.1504141,-11.3818359375,-65.0048828125,-12.5341796875
0.1513506,-11.7236328125,-65.2978515625,-17.0751953125
0.1522886,-11.7236328125,-65.5419921875,-20.5419921875
0.1532075,-11.2353515625,-66.3232421875,-24.2529296875
0.1541495,-12.0654296875,-66.1767578125,-24.9853515625
0.1551511,-12.2607421875,-64.1259765625,-11.7529296875
0.1562656,-12.5537109375,-62.7587890625,11.0986328125
0.1572523,-13.5302734375,-62.6123046875,29.5068359375
0.1582063,-14.0185546875,-62.1728515625,37.6611328125
0.1591347,-15.0927734375,-62.6611328125,37.9541015625
0.160144,-15.6787109375,-62.5634765625,33.5595703125
0.16109,-15.8740234375,-63.3447265625,26.9677734375
0.1620162,-17.2412109375,-63.4423828125,18.7158203125
0.1632209,-16.8505859375,-64.8583984375,11.5869140625
0.1644177,-14.2626953125,-64.4677734375,7.6806640625
0.1655753,-11.2353515625,-64.3701171875,6.6552734375
0.1667153,-9.8193359375,-64.0771484375,6.8994140625
0.1678746,-9.2333984375,-65.0048828125,6.8505859375
0.1690377,-9.3798828125,-64.7607421875,5.7275390625
0.1702198,-10.0634765625,-66.1279296875,3.0419921875
0.1714557,-10.4541015625,-66.2744140625,-0.3271484375
0.172663,-11.5283203125,-67.2021484375,-4.1845703125
0.173715,-11.4306640625,-67.6416015625,-8.5302734375
0.174727,-11.8212890625,-68.2275390625,-12.9248046875
0.1756989,-11.6748046875,-68.6669921875,-17.3193359375
0.1766378,-12.2119140625,-68.8623046875,-19.1748046875
0.1779314,-12.0166015625,-67.0556640625,-9.0673828125
0.1791474,-13.3349609375,-65.8349609375,11.2939453125
0.1803281,-13.6767578125,-65.3955078125,30.8740234375
0.1814804,-14.4091796875,-64.7119140625,38.7841796875
0.1826168,-14.9462890625,-65.1025390625,39.2724609375
0.1837959,-15.7763671875,-65.5908203125,34.2919921875
0.1852169,-16.6552734375,-65.4931640625,25.3564453125
0.1864365,-18.0712890625,-66.6650390625,16.6650390625
0.1873916,-17.9736328125,-66.7138671875,10.2197265625
0.1883436,-16.3623046875,-66.9580078125,5.5322265625
0.1892764,-12.8955078125,-67.0556640625,4.7021484375
0.1902445,-11.1865234375,-67.0068359375,5.6787109375
0.1911748,-10.0634765625,-67.6904296875,5.4345703125
0.1921103,-10.7470703125,-67.5927734375,4.5556640625
0.1931311,-11.3818359375,-67.5927734375,2.3583984375
0.194166,-11.9189453125,-69.0576171875,-1.1572265625
0.1951048,-12.9443359375,-69.0576171875,-4.2333984375
0.1962585,-12.7490234375,-69.8876953125,-8.1396484375
0.1974297,-13.1884765625,-69.7900390625,-12.6806640625
0.1986419,-13.3349609375,-70.0830078125,-15.8056640625
0.1998234,-13.6279296875,-70.6201171875,-18.2470703125
0.2010091,-13.8720703125,-68.4228515625,-7.9443359375
0.2021927,-13.8720703125,-67.1533203125,12.0263671875
0.2033396,-14.8486328125,-66.0791015625,29.7509765625
0.2043331,-15.8251953125,-66.3720703125,37.4658203125
0.2053434,-16.8017578125,-66.7626953125,36.7333984375
0.206335,-16.9482421875,-67.2998046875,32.1923828125
0.2073075,-17.8271484375,-68.3251953125,22.8662109375
0.2082532,-18.5595703125,-68.2763671875,13.2470703125
0.2091851,-18.8037109375,-68.9599609375,6.3623046875
0.2101142,-16.8017578125,-68.6669921875,4.1162109375
0.211221,-14.3115234375,-68.6669921875,4.0185546875
0.212393,-12.4560546875,-68.7646484375,4.1650390625
0.2135366,-11.6259765625,-69.3505859375,3.9208984375
0.2147079,-11.6748046875,-69.4482421875,2.7001953125
0.2158916,-12.5048828125,-69.6923828125,0.7470703125
0.2170772,-13.1884765625,-70.7666015625,-3.4033203125
0.218157,-14.1650390625,-71.0595703125,-6.1865234375
0.2191664,-14.2626953125,-71.7919921875,-9.8486328125
0.2200936,-14.4580078125,-71.9384765625,-14.2431640625
0.221024,-14.2626953125,-72.1337890625,-18.4423828125
0.2219715,-14.7998046875,-70.9619140625,-16.1962890625
0.22291,-14.7021484375,-69.0087890625,-0.4736328125
0.2238406,-15.2392578125,-68.3740234375,21.5966796875
0.2247739,-16.7041015625,-67.5439453125,36.4892578125
0.2257015,-16.7529296875,-67.5927734375,41.1767578125
0.2266328,-17.4853515625,-68.1298828125,39.7119140625
0.2276062,-18.2666015625,-68.7646484375,34.0966796875
0.2285307,-19.0478515625,-69.1064453125,26.7724609375
0.229461,-19.5361328125,-69.7900390625,19.3505859375
0.2304045,-19.3896484375,-69.5458984375,14.8095703125
0.2313312,-17.1923828125,-70.1318359375,12.5146484375
0.2322642,-14.3115234375,-69.6435546875,13.4423828125
0.233199,-12.5048828125,-69.9365234375,14.6630859375
0.2341282,-12.4560546875,-69.8388671875,14.6142578125
0.235075,-12.5537109375,-70.6201171875,13.3935546875
0.2360038,-12.3583984375,-70.6201171875,10.0244140625
0.2369357,-14.5556640625,-71.3037109375,6.5576171875
0.2378751,-14.7998046875,-71.4501953125,2.7490234375
0.2388178,-15.1416015625,-72.8173828125,-2.6220703125
0.2397558,-15.3369140625,-73.2568359375,-6.0888671875
0.2406834,-15.3369140625,-72.4267578125,-9.7021484375
0.2416263,-15.3857421875,-71.4013671875,-2.7197265625
0.2425498,-15.5810546875,-69.5947265625,17.7880859375
0.2435646,-16.4599609375,-68.6181640625,40.5419921875
0.2445485,-17.1435546875,-68.4716796875,53.3837890625
0.2454947,-18.1201171875,-67.7392578125,56.7041015625
0.2464497,-18.6572265625,-68.7646484375,53.8720703125
0.2474019,-19.3896484375,-68.7158203125,47.0849609375
0.2483268,-20.4638671875,-70.0341796875,38.9306640625
0.249262,-21.1962890625,-69.7412109375,30.0439453125
0.2502074,-20.6103515625,-69.6923828125,25.6005859375
0.2511444,-17.0947265625,-69.5458984375,23.9404296875
0.2520907,-14.7509765625,-70.1806640625,25.4052734375
0.2530357,-13.2861328125,-69.4970703125,27.3095703125
0.2539653,-13.3349609375,-70.2783203125,28.8720703125
0.2548959,-13.2373046875,-71.3525390625,30.1904296875
0.255836,-13.6767578125,-71.3037109375,28.0908203125
0.2567639,-15.0439453125,-71.9384765625,25.5029296875
0.2577074,-15.6298828125,-72.3779296875,22.8662109375
0.2586634,-15.7763671875,-73.3544921875,19.8388671875
0.2599578,-15.9716796875,-73.5009765625,16.9091796875
0.261124,-16.0693359375,-74.1845703125,14.9072265625
0.2622604,-16.4111328125,-71.8896484375,23.8916015625
0.2633966,-16.9970703125,-70.1806640625,46.1083984375
0.2645349,-17.8271484375,-69.4482421875,67.8857421875
0.2656978,-18.6083984375,-69.2529296875,79.2626953125
0.2668659,-19.2431640625,-69.2041015625,80.7763671875
0.2680882,-19.4873046875,-69.2041015625,79.2626953125
0.2693442,-20.8544921875,-70.2294921875,73.4033203125
0.2705171,-21.0986328125,-70.0830078125,64.8095703125
0.2714791,-21.8798828125,-70.7177734375,57.7294921875
0.2725076,-21.2451171875,-70.8154296875,52.2119140625
0.2734277,-18.4130859375,-70.6201171875,51.0400390625
0.2744435,-16.0205078125,-70.5712890625,51.6748046875
0.2753677,-13.8232421875,-70.9130859375,51.5771484375
0.2764906,-13.9697265625,-71.2548828125,50.8935546875
0.2775757,-14.5556640625,-71.9873046875,48.6962890625
0.278492,-14.9462890625,-72.2314453125,45.4248046875
0.2794875,-16.0205078125,-72.0849609375,42.1533203125
0.2804225,-16.7529296875,-73.2080078125,37.5634765625
0.2813521,-16.8505859375,-74.2822265625,34.0966796875
0.2822739,-17.0947265625,-74.4775390625,29.8486328125
0.2832937,-17.0947265625,-75.2099609375,27.3095703125
0.2843002,-17.5341796875,-73.1103515625,34.3896484375
0.2852255,-18.5107421875,-71.3037109375,55.9228515625
0.2861649,-18.4619140625,-70.5224609375,75.8447265625
0.2870888,-18.9501953125,-70.3271484375,88.0517578125
0.2880099,-20.3662109375,-70.2294921875,88.4912109375
0.2891629,-20.5615234375,-70.4736328125,84.1943359375
0.290343,-21.5869140625,-71.7919921875,76.3818359375
0.2914844,-21.8798828125,-72.9150390625,65.8837890625
0.2925687,-22.6611328125,-73.0615234375,56.5087890625
0.2934911,-23.1982421875,-72.8173828125,49.9658203125
0.2944292,-20.2685546875,-73.0126953125,44.6435546875
0.2953698,-17.3388671875,-73.3544921875,41.2255859375
0.2963252,-15.7763671875,-73.8427734375,38.1005859375
0.2972533,-15.2880859375,-74.2822265625,35.7568359375
0.2981879,-15.5322265625,-74.8193359375,32.4853515625
0.2991257,-16.0693359375,-75.0146484375,27.7001953125
0.3000697,-16.8994140625,-76.3330078125,23.9404296875
0.3010103,-18.1689453125,-77.3583984375,17.9345703125
0.3019435,-18.4130859375,-77.6513671875,13.5888671875
0.3028833,-18.2666015625,-78.1396484375,9.1455078125
0.3038523,-19.5361328125,-78.1396484375,6.8994140625
0.3047924,-19.0478515625,-76.5283203125,16.9580078125
0.3059252,-19.5849609375,-74.4287109375,38.7353515625
0.3069271,-19.9267578125,-74.0380859375,57.0947265625
0.3079203,-20.6103515625,-74.0869140625,65.8349609375
0.3088554,-20.9521484375,-74.3310546875,65.8837890625
0.3097953,-20.7080078125,-74.8681640625,60.6103515625
0.3107283,-21.3427734375,-75.5029296875,53.0419921875
0.3117501,-22.4169921875,-75.9912109375,42.3486328125
0.3127007,-22.4658203125,-76.5771484375,35.3173828125
0.3136286,-22.8076171875,-76.7236328125,31.2646484375
0.3145542,-20.8056640625,-76.5283203125,30.1904296875
0.3154894,-17.4853515625,-76.9189453125,30.9716796875
0.3165429,-16.4599609375,-77.1142578125,31.1181640625
0.317499,-15.6298828125,-77.8466796875,29.7021484375
0.3184967,-16.1181640625,-78.0908203125,27.0166015625
0.3194208,-16.7041015625,-78.7255859375,22.9638671875
0.3203424,-17.6806640625,-78.7744140625,19.0087890625
0.3214639,-18.0712890625,-79.6044921875,13.9306640625
0.3223893,-18.3154296875,-80.5322265625,9.2431640625
0.3233203,-17.8271484375,-80.8251953125,4.7998046875
0.32425,-17.7294921875,-79.2138671875,7.5830078125
0.3251796,-18.8525390625,-78.0419921875,23.9404296875
0.3261172,-18.8037109375,-76.6259765625,46.4990234375
0.3270522,-19.2919921875,-76.6748046875,60.9033203125
0.327968,-19.9755859375,-76.7236328125,65.2490234375
0.3288828,-21.0009765625,-76.9677734375,61.6357421875
0.329813,-21.7333984375,-77.7001953125,54.1162109375
0.3307351,-22.0263671875,-78.4326171875,44.8876953125
0.3316604,-22.8564453125,-78.3837890625,34.7802734375
0.3326004,-22.9541015625,-79.3115234375,29.1650390625
0.333514,-20.9521484375,-78.3837890625,26.7236328125
0.334522,-18.4130859375,-78.7744140625,26.2353515625
0.3354495,-15.8251953125,-79.2626953125,26.8212890625
0.3365052,-15.0439453125,-79.7998046875,25.5029296875
0.3376542,-14.6044921875,-80.0439453125,23.5498046875
0.3386012,-15.3857421875,-80.7275390625,20.5712890625
0.3395103,-16.2158203125,-81.2158203125,16.9580078125
0.3405166,-17.7783203125,-81.7529296875,12.8076171875
0.3415128,-17.8759765625,-82.9248046875,7.9248046875
0.3424343,-18.3642578125,-82.6806640625,2.7490234375
0.3433833,-18.4130859375,-82.5830078125,0.6494140625
0.34431,-18.6083984375,-80.5322265625,14.3701171875
0.3453444,-18.6083984375,-78.5791015625,38.6865234375
0.3462738,-18.8037109375,-78.6767578125,57.9248046875
0.347217,-20.0244140625,-78.0908203125,67.1533203125
0.3481322,-20.6591796875,-78.4814453125,66.1767578125
0.3490558,-20.7568359375,-78.9208984375,60.9033203125
0.34998,-21.4892578125,-78.9697265625,53.4326171875
0.3509037,-21.7333984375,-79.8974609375,42.5439453125
0.3518227,-22.7099609375,-80.2880859375,34.3408203125
0.3527997,-22.4658203125,-79.8486328125,29.4580078125
0.3537537,-20.5126953125,-80.0927734375,27.6513671875
0.354692,-17.2900390625,-80.8251953125,28.1884765625
0.3556142,-15.4345703125,-80.4345703125,28.4814453125
0.3565338,-14.7998046875,-81.4599609375,26.6259765625
0.3574662,-15.4345703125,-81.7529296875,23.6474609375
0.358382,-15.7763671875,-82.0947265625,19.4482421875
0.3593225,-15.8740234375,-82.9736328125,15.6396484375
0.3602607,-17.2412109375,-83.8525390625,10.8544921875
0.3611897,-17.7294921875,-84.5361328125,5.5322265625
0.3621149,-17.6806640625,-84.5361328125,2.2119140625
0.3630426,-17.5830078125,-82.3388671875,5.6298828125
0.3639951,-17.5830078125,-80.8251953125,25.3564453125
0.3649293,-17.7783203125,-79.6044921875,49.5263671875
0.3659906,-18.8037109375,-79.5068359375,64.2724609375
0.367051,-19.3896484375,-79.4091796875,68.6181640625
0.3679956,-19.7802734375,-79.9462890625,65.1513671875
0.3689241,-21.0009765625,-80.3369140625,57.8759765625
0.3698686,-21.3427734375,-80.8251953125,48.9892578125
0.3707907,-21.9287109375,-81.2646484375,39.4189453125
0.3717104,-22.1728515625,-81.6064453125,32.8759765625
0.3727298,-21.5380859375,-81.0693359375,30.3369140625
0.3736653,-18.9990234375,-82.0458984375,30.4833984375
0.3746574,-16.8017578125,-81.6064453125,31.9970703125
0.3755855,-14.8974609375,-82.2412109375,31.5576171875
0.3765099,-14.8486328125,-82.4365234375,29.5556640625
0.3774954,-15.3369140625,-83.2177734375,27.0654296875
0.3784332,-15.7275390625,-83.0712890625,23.0615234375
0.3793695,-16.1181640625,-83.9501953125,18.6181640625
0.3802931,-17.5341796875,-84.1943359375,14.1259765625
0.3812554,-17.2412109375,-84.5849609375,8.6572265625
0.3821848,-17.6806640625,-84.4384765625,5.2880859375
0.3831135,-17.3876953125,-82.8759765625,13.1982421875
0.3840315,-18.1689453125,-81.2158203125,35.5615234375
0.3849761,-18.1201171875,-80.5322265625,57.9736328125
0.3861371,-18.7548828125,-79.9951171875,70.1318359375
0.3870683,-19.1455078125,-80.3857421875,70.8154296875
0.3879827,-19.7802734375,-80.9228515625,66.1279296875
0.3890877,-20.5615234375,-81.2646484375,58.1201171875
0.3902282,-21.1962890625,-82.2412109375,46.9873046875
0.3913545,-22.0751953125,-82.7294921875,38.1982421875
0.392497,-22.3681640625,-82.2412109375,32.6318359375
0.3936614,-21.9287109375,-81.8994140625,30.4833984375
0.3948287,-18.4130859375,-82.5341796875,30.9716796875
0.396044,-15.8740234375,-82.1923828125,31.2158203125
0.3973169,-14.7021484375,-82.9736328125,29.7998046875
0.3985779,-15.2880859375,-83.3154296875,28.3349609375
0.3997607,-16.0693359375,-83.6572265625,25.1123046875
0.4007639,-15.7763671875,-84.4873046875,21.0107421875
0.4017827,-16.9482421875,-84.4873046875,16.6650390625
0.4028142,-17.6318359375,-85.2197265625,12.2216796875
0.4038558,-17.1435546875,-85.8544921875,7.8271484375
0.4048469,-17.5830078125,-85.4638671875,5.4345703125
0.4057809,-17.0947265625,-83.5107421875,16.0791015625
0.406716,-17.7783203125,-81.6064453125,38.8818359375
0.4076701,-18.1201171875,-80.7275390625,59.9755859375
0.4086007,-18.5595703125,-80.4833984375,70.9130859375
0.4095271,-19.5849609375,-80.8251953125,72.2314453125
0.4104502,-19.7314453125,-82.2412109375,67.4462890625
0.4113872,-20.9033203125,-82.7294921875,60.0244140625
0.4123079,-21.2939453125,-83.1201171875,49.9658203125
0.413262,-21.9287109375,-82.7783203125,41.9091796875
0.4141964,-22.1240234375,-81.8994140625,38.2470703125
0.4151441,-21.4892578125,-82.4853515625,37.5146484375
0.4160688,-18.9013671875,-82.7783203125,38.9306640625
0.4170496,-16.1669921875,-83.0224609375,40.0048828125
0.4179828,-15.2880859375,-83.1201171875,38.5888671875
0.4189111,-14.7021484375,-83.3642578125,36.5869140625
0.4198424,-15.4345703125,-83.6083984375,34.1455078125
0.4207618,-15.9716796875,-83.9501953125,29.5556640625
0.4216893,-16.8994140625,-84.5361328125,25.0146484375
0.422629,-17.8271484375,-85.1708984375,20.1806640625
0.4235531,-17.8759765625,-85.6103515625,14.9072265625
0.4245035,-17.8271484375,-84.3896484375,15.1513671875
0.4255083,-17.1923828125,-82.5830078125,30.7275390625
0.4264526,-18.1201171875,-81.1181640625,53.4326171875
0.4274089,-18.5107421875,-80.5322265625,69.4482421875
0.428334,-18.8525390625,-80.3857421875,74.7705078125
0.4292609,-19.8779296875,-80.8251953125,72.2802734375
0.430194,-20.5126953125,-81.4599609375,64.9072265625
0.4311171,-21.3427734375,-81.7041015625,54.4580078125
0.4320579,-21.5380859375,-82.1435546875,43.5205078125
0.4330029,-22.1728515625,-81.9482421875,35.2197265625
0.433942,-22.3193359375,-81.9482421875,31.8994140625
0.4348926,-21.2451171875,-82.0947265625,31.7041015625
0.4358163,-17.6806640625,-81.8994140625,31.8017578125
0.4367412,-15.7763671875,-82.1923828125,30.9228515625
0.437689,-14.5556640625,-82.6806640625,28.3349609375
0.4386114,-14.9951171875,-83.1201171875,25.5517578125
0.4395362,-15.4345703125,-83.6572265625,21.3525390625
0.440469,-16.3623046875,-83.6572265625,17.2998046875
0.441406,-17.7294921875,-84.0966796875,12.3193359375
0.4423318,-17.9248046875,-84.4873046875,8.7548828125
0.4432768,-17.8271484375,-83.8525390625,6.3134765625
0.4442042,-18.1201171875,-81.8505859375,19.5947265625
0.4451421,-17.8271484375,-79.6533203125,44.1064453125
0.446072,-18.2177734375,-78.8720703125,65.3466796875
0.4470633,-18.9990234375,-79.0673828125,75.4052734375
0.4480145,-19.3408203125,-78.8232421875,76.1865234375
0.4490164,-20.7080078125,-78.6279296875,71.2548828125
0.4499942,-21.1474609375,-79.9462890625,62.8076171875
0.4509157,-21.5380859375,-79.4580078125,52.7490234375
0.4518456,-22.7587890625,-79.7509765625,44.0576171875
0.4527748,-22.7099609375,-79.8974609375,39.4677734375
0.4537227,-21.7822265625,-79.8486328125,38.3447265625
0.4546683,-19.4873046875,-79.2626953125,39.2724609375
0.4555822,-16.6064453125,-79.0185546875,39.7119140625
0.4565115,-15.2880859375,-79.9462890625,38.7353515625
0.4574673,-14.7021484375,-79.8486328125,37.3193359375
0.4584068,-15.1416015625,-80.8251953125,33.2177734375
0.4593282,-15.3369140625,-80.9228515625,29.9462890625
0.4602491,-16.1669921875,-81.1669921875,25.0634765625
0.46119,-17.3876953125,-82.3388671875,20.2783203125
0.4621139,-17.6806640625,-81.6552734375,15.7861328125
0.4631024,-17.3388671875,-80.3857421875,19.0087890625
0.4640455,-17.4365234375,-78.2373046875,39.0771484375
0.4651419,-17.8271484375,-77.2119140625,64.4677734375
0.4663273,-18.1201171875,-76.4306640625,81.0693359375
0.4674866,-19.1943359375,-76.1865234375,85.8544921875
0.4687199,-19.5849609375,-76.2353515625,83.2177734375
0.4698656,-20.4150390625,-76.8212890625,76.6748046875
0.4710437,-20.8056640625,-77.7978515625,67.0556640625
0.4722227,-21.2451171875,-77.4072265625,56.9482421875
0.473446,-22.6123046875,-77.4072265625,49.6728515625
0.4746813,-22.8076171875,-77.0654296875,46.4990234375
0.4757195,-21.2939453125,-77.2119140625,46.2548828125
0.4767204,-18.1201171875,-76.8212890625,46.4501953125
0.4776979,-15.3369140625,-77.1142578125,45.8642578125
0.4786281,-14.6533203125,-77.8955078125,43.8134765625
0.4795422,-14.9462890625,-77.7978515625,41.6162109375
0.4805177,-14.7998046875,-78.6279296875,37.0751953125
0.4814547,-15.7763671875,-79.0185546875,32.4853515625
0.4826844,-16.7529296875,-79.5068359375,27.7978515625
0.4838474,-16.8017578125,-79.9462890625,22.9150390625
0.4850152,-17.2900390625,-79.7021484375,19.2529296875
0.4861452,-17.2412109375,-77.9443359375,29.2626953125
0.4873834,-17.6318359375,-76.3818359375,52.0654296875
0.4885853,-18.4619140625,-74.1357421875,74.5263671875
0.4897948,-18.4130859375,-74.3798828125,86.3427734375
0.4910178,-18.9013671875,-74.8193359375,87.3193359375
0.4920529,-19.6826171875,-74.7216796875,83.2666015625
0.4930584,-19.9755859375,-75.0634765625,75.1123046875
0.4940151,-21.1474609375,-75.5029296875,65.7373046875
0.4949368,-22.0751953125,-76.0400390625,56.7041015625
0.4958591,-22.3193359375,-75.4541015625,50.6494140625
0.4968067,-22.0751953125,-76.0888671875,48.7451171875
0.4977442,-20.8544921875,-76.0400390625,49.6728515625
0.4986887,-17.5830078125,-76.2353515625,49.9658203125
0.4996129,-15.5322265625,-76.5283203125,49.4287109375
0.5005381,-14.8486328125,-77.1142578125,47.0849609375
0.5015159,-15.1904296875,-77.8466796875,43.6181640625
0.5024375,-15.3857421875,-78.1396484375,39.5654296875
0.5033734,-16.2646484375,-78.8720703125,36.0498046875
0.5042975,-17.6318359375,-79.3115234375,31.5087890625
0.5052783,-17.7783203125,-79.8974609375,27.1142578125
0.5062277,-17.9248046875,-78.5302734375,25.8935546875
0.5071512,-18.0712890625,-77.1142578125,38.6865234375
0.5080692,-17.4853515625,-75.2587890625,62.3193359375
0.5090309,-18.4619140625,-74.4287109375,82.0458984375
0.5099544,-19.4384765625,-74.1845703125,90.7373046875
0.5108813,-19.7802734375,-74.6240234375,89.8095703125
0.5118156,-20.4638671875,-75.6005859375,85.0732421875
0.5127313,-21.0498046875,-76.3330078125,75.8935546875
0.5136861,-21.9775390625,-76.1376953125,65.6884765625
0.5146262,-22.5634765625,-76.5283203125,57.7294921875
0.515553,-23.3935546875,-76.1865234375,53.4326171875
0.5164734,-23.4912109375,-76.2353515625,53.2861328125
0.5174182,-20.9033203125,-76.7724609375,54.7998046875
0.5183544,-18.4619140625,-77.4072265625,54.1650390625
0.5192848,-16.3134765625,-77.8955078125,53.4814453125
0.5202146,-16.3623046875,-77.9443359375,50.1123046875
0.5211448,-16.8017578125,-78.6767578125,46.4501953125
0.5220691,-16.9970703125,-79.4091796875,41.9580078125
0.5230267,-17.9248046875,-79.6533203125,37.6611328125
0.5240038,-19.1455078125,-80.4345703125,32.1923828125
0.5249431,-19.8291015625,-80.0439453125,28.2373046875
0.5258888,-19.7802734375,-78.2373046875,34.5849609375
0.5268078,-19.2919921875,-76.4794921875,55.4833984375
0.5277293,-20.2197265625,-75.7958984375,75.9423828125
0.5286733,-20.0732421875,-75.5029296875,87.4169921875
0.5296148,-20.2685546875,-76.0400390625,88.2470703125
0.5305539,-21.3916015625,-75.6005859375,82.7783203125
0.5314788,-21.8798828125,-76.4794921875,73.8916015625
0.5323982,-22.0751953125,-77.1630859375,63.9794921875
0.5333266,-23.0517578125,-76.6748046875,53.5791015625
0.5342495,-23.6865234375,-76.8701171875,47.4267578125
0.5351881,-24.1259765625,-76.9677734375,45.4736328125
0.5361101,-23.1982421875,-77.3095703125,44.9853515625
0.5370337,-20.0732421875,-77.3583984375,44.9853515625
0.537968,-17.5830078125,-78.0908203125,43.5205078125
0.5388945,-16.8994140625,-78.3349609375,40.5908203125
0.5398209,-16.8505859375,-79.3603515625,36.1962890625
0.5407657,-17.3388671875,-79.6044921875,32.1435546875
0.5416972,-17.9248046875,-80.3369140625,27.3583984375
0.5426183,-19.6337890625,-80.9716796875,21.9384765625
0.5435565,-20.0244140625,-81.0693359375,17.8369140625
0.5445087,-20.5615234375,-79.2626953125,20.7177734375
0.5455062,-19.6826171875,-77.1142578125,40.5419921875
0.5465034,-20.0244140625,-75.5517578125,64.0283203125
0.5474368,-20.4150390625,-75.1123046875,79.9951171875
0.5483696,-21.1474609375,-75.4541015625,84.2919921875
0.5493296,-21.6845703125,-76.1376953125,80.9716796875
0.5502522,-22.5146484375,-75.9912109375,74.3310546875
0.5511849,-22.5146484375,-76.6259765625,64.5166015625
0.5521135,-23.3935546875,-77.4072265625,54.8486328125
0.5531111,-24.4189453125,-77.1142578125,47.8173828125
0.554045,-25.0048828125,-77.2119140625,43.4716796875
0.5549862,-24.1748046875,-77.1142578125,43.1298828125
0.5559146,-21.8798828125,-77.4072265625,44.1552734375
0.5568315,-19.0478515625,-77.4560546875,43.8623046875
0.5577779,-17.2412109375,-78.2861328125,42.2021484375
0.5587072,-16.7529296875,-79.0185546875,38.6376953125
0.559627,-17.0458984375,-79.4580078125,35.3662109375
0.560562,-17.7783203125,-79.9462890625,31.4111328125
0.5614819,-18.7548828125,-80.7275390625,23.5009765625
0.5624199,-19.3896484375,-80.4345703125,17.7392578125
0.5633496,-19.6826171875,-79.6044921875,16.0302734375
0.5642708,-19.8291015625,-77.6025390625,29.7998046875
0.5651979,-20.0732421875,-76.2353515625,53.7744140625
0.5661178,-19.7314453125,-75.1611328125,71.3525390625
0.567048,-20.1708984375,-75.1611328125,77.6513671875
0.5679735,-21.0986328125,-75.7470703125,75.9423828125
0.5689088,-21.6357421875,-75.6494140625,70.8154296875
0.5698437,-22.4169921875,-76.1376953125,62.4658203125
0.5707602,-22.4658203125,-76.1865234375,52.4560546875
0.571684,-23.9794921875,-76.6748046875,44.8388671875
0.5726101,-24.4677734375,-75.9423828125,40.6884765625
0.5735325,-25.0048828125,-76.0400390625,40.2978515625
0.5744973,-23.1494140625,-76.2841796875,41.8603515625
0.5754347,-20.2685546875,-76.3818359375,42.2021484375
0.5763553,-18.0712890625,-77.2119140625,41.1767578125
0.5775352,-16.9482421875,-77.3583984375,38.0029296875
0.5784808,-17.9248046875,-78.3349609375,33.9990234375
0.5795306,-17.3876953125,-78.8232421875,29.9951171875
0.5804572,-18.5595703125,-79.2626953125,24.0869140625
0.5815316,-19.2431640625,-80.1416015625,19.1552734375
0.5824652,-19.9267578125,-79.5068359375,13.6865234375
0.5833868,-20.1708984375,-78.0908203125,19.3505859375
0.5844777,-20.0732421875,-76.1376953125,38.7353515625
0.5854048,-20.1220703125,-75.0146484375,58.9013671875
0.5864769,-20.5615234375,-75.0146484375,67.8857421875
0.5874169,-21.6845703125,-75.1611328125,69.1552734375
0.5884885,-21.8310546875,-74.9169921875,64.2236328125
0.5894099,-22.1240234375,-75.6982421875,55.6298828125
0.5903395,-23.1982421875,-75.5517578125,46.1083984375
0.5913765,-24.3212890625,-75.7958984375,37.0263671875
0.5922994,-24.1748046875,-75.6005859375,31.5087890625
0.593525,-25.2490234375,-76.0888671875,29.2626953125
0.594679,-25.0048828125,-76.4306640625,30.0927734375
0.5956459,-22.4169921875,-76.5283203125,30.0439453125
0.5965757,-18.9990234375,-77.0654296875,29.7509765625
0.597494,-17.7783203125,-77.9443359375,29.0673828125
0.598426,-17.2900390625,-78.3349609375,26.2353515625
0.5993542,-17.2412109375,-78.6767578125,22.1826171875
0.6002826,-17.9248046875,-78.7744140625,18.1787109375
0.601204,-18.5107421875,-79.3603515625,14.1259765625
0.6021407,-19.0478515625,-80.3369140625,9.9267578125
0.6030618,-19.7802734375,-78.9697265625,10.7080078125
0.6040347,-19.7314453125,-77.1630859375,26.3818359375
0.6049686,-19.5849609375,-75.8935546875,47.7685546875
0.6059013,-19.7314453125,-75.4541015625,64.1259765625
0.6068262,-19.9267578125,-75.1123046875,68.6669921875
0.6077465,-20.4638671875,-75.8447265625,66.0302734375
0.6087038,-21.1474609375,-76.2353515625,58.4619140625
0.6096414,-22.1728515625,-76.8701171875,47.7685546875
0.6106068,-22.2705078125,-77.0654296875,34.9755859375
0.6115321,-22.6611328125,-77.1142578125,25.6982421875
0.6124498,-23.5400390625,-76.7724609375,20.9130859375
0.6133785,-23.6865234375,-76.6259765625,17.9345703125
0.6143209,-22.0751953125,-77.4072265625,15.8837890625
0.615301,-19.9755859375,-77.7001953125,12.6611328125
0.616233,-16.9970703125,-78.3349609375,9.4384765625
0.6171618,-16.4111328125,-78.4326171875,4.5068359375
0.61809,-16.5576171875,-79.2626953125,-0.1318359375
0.619014,-16.1669921875,-79.8486328125,-5.9423828125
0.6199505,-18.0712890625,-80.6298828125,-11.5576171875
0.6208744,-18.3154296875,-80.4345703125,-16.7333984375
0.6217976,-19.5849609375,-79.5556640625,-19.7607421875
0.6227342,-18.4130859375,-77.7001953125,-6.5283203125
0.6236574,-18.4619140625,-76.4306640625,12.9052734375
0.6245827,-19.2919921875,-76.4306640625,28.3837890625
0.6255174,-19.0478515625,-76.0400390625,33.1201171875
0.6264512,-20.0732421875,-76.9677734375,29.9462890625
0.6273911,-20.3173828125,-77.7490234375,23.8916015625
0.6283214,-21.4892578125,-78.2373046875,14.3212890625
0.6292975,-22.3681640625,-78.2861328125,3.7744140625
0.6302202,-22.4169921875,-78.2373046875,-3.1591796875
0.6311609,-23.0517578125,-78.4814453125,-6.0400390625
0.6320853,-23.7353515625,-78.2861328125,-6.4794921875
0.6330355,-22.9541015625,-78.5302734375,-6.4306640625
0.6340038,-20.3173828125,-78.9208984375,-6.8212890625
0.6349313,-17.9248046875,-78.8720703125,-8.5791015625
0.6358572,-16.9482421875,-79.7509765625,-12.0947265625
0.6367911,-17.2412109375,-80.3369140625,-16.7333984375
0.6377242,-17.4853515625,-80.2392578125,-22.1044921875
0.6386568,-17.3876953125,-81.1181640625,-27.2314453125
0.6395957,-18.3154296875,-81.1669921875,-31.0888671875
0.6405259,-19.1455078125,-80.1416015625,-31.2353515625
0.6417048,-19.0478515625,-77.9443359375,-16.1962890625
0.6426621,-18.4130859375,-77.4560546875,3.6767578125
0.6436098,-18.9501953125,-76.9189453125,18.1787109375
0.6445339,-18.9501953125,-77.5537109375,22.1337890625
0.6455535,-19.5849609375,-77.5048828125,18.7158203125
0.6464866,-19.7314453125,-77.8466796875,11.8798828125
0.6474178,-20.6103515625,-77.7978515625,2.5048828125
0.6483377,-21.4404296875,-78.6767578125,-7.4072265625
0.6492995,-21.9775390625,-78.6279296875,-15.0732421875
0.6502219,-22.9541015625,-78.4814453125,-18.5400390625
0.6511525,-23.1982421875,-78.1884765625,-19.2724609375
0.6520833,-22.3193359375,-78.6279296875,-18.5888671875
0.6530421,-19.6826171875,-78.7744140625,-19.2236328125
0.6539738,-16.9970703125,-79.4580078125,-20.1025390625
0.6549045,-16.0693359375,-79.6044921875,-23.3740234375
0.6558323,-15.4833984375,-79.9951171875,-26.5966796875
0.6567562,-15.7275390625,-80.5322265625,-31.1865234375
0.657722,-16.5087890625,-80.8740234375,-36.2158203125
0.6586482,-16.6064453125,-81.0205078125,-40.6591796875
0.6595686,-17.4853515625,-79.7998046875,-37.0947265625
0.6605311,-17.9248046875,-77.8466796875,-18.9306640625
0.6614529,-16.8994140625,-76.5283203125,2.9931640625
0.6623964,-17.1435546875,-76.1376953125,16.4697265625
0.6633296,-17.4853515625,-76.5771484375,20.0830078125
0.6642881,-18.3154296875,-76.5283203125,18.0810546875
0.6652082,-18.7060546875,-76.8212890625,11.3916015625
0.6661477,-19.3896484375,-76.7236328125,3.1396484375
0.6670701,-20.3173828125,-77.4560546875,-5.4052734375
0.6680297,-21.1474609375,-77.6025390625,-12.1435546875
0.6689785,-21.7822265625,-77.2607421875,-14.7314453125
0.6699136,-21.8310546875,-77.1630859375,-15.2685546875
0.6708482,-20.8056640625,-77.2607421875,-15.5615234375
0.6717845,-17.6318359375,-77.7978515625,-15.5615234375
0.6729319,-15.0927734375,-77.9443359375,-17.0263671875
0.6739172,-13.9208984375,-78.6767578125,-21.3720703125
0.6749802,-13.5791015625,-79.1650390625,-25.2783203125
0.675944,-14.3603515625,-79.2626953125,-29.6240234375
0.6769903,-14.0185546875,-80.0927734375,-34.6044921875
0.6779457,-15.3369140625,-79.8974609375,-38.0712890625
0.6790081,-15.3369140625,-78.7255859375,-35.2880859375
0.679968,-16.0693359375,-76.3818359375,-16.5869140625
0.6810067,-16.4599609375,-75.2099609375,4.7509765625
0.6819556,-16.1181640625,-75.2587890625,19.1552734375
0.6828745,-16.3623046875,-74.5263671875,24.4775390625
0.6838703,-16.8994140625,-75.1123046875,22.5732421875
0.6848353,-17.2900390625,-75.7470703125,15.2490234375
0.6858237,-18.4130859375,-75.6494140625,6.8994140625
0.686779,-18.8037109375,-75.5517578125,-2.0361328125
0.6877334,-19.2431640625,-76.0888671875,-9.5068359375
0.6889067,-20.4638671875,-75.8935546875,-11.7529296875
0.6898448,-21.0986328125,-76.4306640625,-12.3388671875
0.6907881,-20.5126953125,-76.1376953125,-11.4111328125
0.6917047,-17.2412109375,-76.5283203125,-13.0224609375
0.6926205,-14.4580078125,-76.9189453125,-14.0966796875
0.6936176,-13.5302734375,-77.6513671875,-17.0263671875
0.694538,-12.8466796875,-77.6025390625,-20.5419921875
0.6955295,-12.9443359375,-77.9443359375,-24.8876953125
0.69646,-13.4814453125,-78.3349609375,-29.7705078125
0.697395,-14.5068359375,-78.8720703125,-34.5556640625
0.6983466,-14.9462890625,-77.4072265625,-32.7978515625
0.6993391,-14.9951171875,-75.8447265625,-17.0263671875
0.7002684,-14.6044921875,-74.1845703125,4.3603515625
0.7012045,-14.9951171875,-73.9892578125,19.4970703125
0.702133,-15.2880859375,-74.4287109375,23.6962890625
0.7030572,-15.4345703125,-74.8681640625,20.6689453125
0.7039763,-16.7529296875,-75.6005859375,13.9794921875
0.7049098,-17.3876953125,-75.8935546875,4.2626953125
0.70585,-18.5595703125,-75.5029296875,-4.7705078125
0.7067694,-18.9990234375,-76.3818359375,-10.8251953125
0.7077006,-20.0732421875,-76.1865234375,-13.4130859375
0.7086285,-20.4638671875,-75.5517578125,-12.5341796875
0.7095566,-20.0732421875,-76.6259765625,-11.8994140625
0.7104772,-17.5341796875,-76.2353515625,-12.7783203125
0.7114116,-14.0185546875,-76.9677734375,-14.6826171875
0.7123338,-13.0419921875,-77.1630859375,-17.7099609375
0.7132592,-12.6025390625,-78.0419921875,-21.4208984375
0.7141906,-12.1630859375,-78.7744140625,-25.5224609375
0.7151318,-12.7001953125,-79.1162109375,-30.5517578125
0.7160513,-13.9208984375,-79.5556640625,-34.2626953125
0.7169848,-14.7021484375,-78.2373046875,-32.8955078125
0.7179004,-14.7509765625,-76.1376953125,-17.9052734375
0.7188157,-14.4091796875,-75.3564453125,3.7744140625
0.7197468,-14.5068359375,-75.3076171875,19.2529296875
0.7206629,-15.0439453125,-75.4541015625,23.3544921875
0.7215943,-15.5810546875,-75.4541015625,20.8154296875
0.7225193,-16.3623046875,-75.9423828125,14.0283203125
0.7234414,-16.8017578125,-77.3583984375,4.4091796875
0.7243849,-17.7783203125,-77.7001953125,-5.9423828125
0.725318,-18.7060546875,-77.7978515625,-11.9970703125
0.7262352,-19.3408203125,-77.4072265625,-14.3408203125
0.72716,-20.2197265625,-77.7978515625,-14.6826171875
0.728089,-20.5126953125,-77.4560546875,-13.4130859375
0.729022,-17.6318359375,-78.3837890625,-14.3896484375
0.7299571,-14.7021484375,-78.4814453125,-16.7333984375
0.7308971,-12.6025390625,-79.7509765625,-19.2724609375
0.7318381,-12.7001953125,-79.7021484375,-23.2763671875
0.7327568,-12.8466796875,-80.9228515625,-27.1826171875
0.7336973,-13.3349609375,-81.6552734375,-31.3818359375
0.7346167,-14.4091796875,-81.5087890625,-35.2880859375
0.7355462,-14.7021484375,-80.1416015625,-32.3583984375
0.7364749,-15.6787109375,-78.1884765625,-14.7314453125
0.7374869,-15.5322265625,-77.4560546875,7.8271484375
0.7384884,-14.2138671875,-77.3583984375,22.6220703125
0.7394364,-15.8740234375,-77.3583984375,27.1142578125
0.7403953,-15.7763671875,-77.7490234375,24.0380859375
0.7413283,-16.6064453125,-78.9208984375,18.5205078125
0.742256,-18.0224609375,-79.1162109375,8.4130859375
0.7432586,-18.3154296875,-79.3115234375,-1.0107421875
0.7442601,-19.0966796875,-78.8720703125,-6.8701171875
0.7452095,-19.9267578125,-79.6533203125,-8.9208984375
0.7461609,-20.6591796875,-79.9462890625,-8.6279296875
0.7471038,-21.1962890625,-80.9716796875,-8.0419921875
0.7480341,-18.1689453125,-80.8740234375,-8.4814453125
0.7489676,-14.6044921875,-81.1669921875,-10.9228515625
0.7499043,-13.0419921875,-82.0458984375,-14.0966796875
0.7508262,-12.7978515625,-81.8505859375,-18.0517578125
0.7517579,-12.7001953125,-83.1201171875,-22.5439453125
0.7526811,-13.0908203125,-83.5107421875,-28.4033203125
0.7536567,-13.6279296875,-83.4130859375,-32.2119140625
0.7545917,-14.6044921875,-81.5576171875,-25.4736328125
0.7555182,-14.7021484375,-79.9951171875,-4.8193359375
0.7564401,-14.7509765625,-79.6533203125,16.7626953125
0.7573686,-14.9951171875,-79.5068359375,30.2880859375
0.758295,-14.8486328125,-79.9462890625,33.2666015625
0.77093,-15.4345703125,-80.2880859375,29.7998046875
0.8060233,-16.1669921875,-80.5322265625,21.7919921875
0.830536,-16.9482421875,-81.1669921875,11.6845703125
0.866198,-17.9736328125,-81.2158203125,2.4560546875
0.8920624,-19.0966796875,-81.3134765625,-4.4775390625
0.9292228,-19.3408203125,-81.6552734375,-7.0166015625
0.9501833,-20.7080078125,-81.8017578125,-7.4560546875
0.9873288,-20.3662109375,-82.4365234375,-8.9697265625
1.0131856,-17.1435546875,-83.2177734375,-10.2392578125
1.0404225,-14.3603515625,-83.5595703125,-12.6318359375
1.0882651,-12.3095703125,-83.6572265625,-16.5869140625
1.1092296,-11.6748046875,-84.7314453125,-20.9814453125
1.1324751,-12.3583984375,-84.2431640625,-26.0107421875
1.1714909,-12.0654296875,-86.2451171875,-30.6005859375
1.1913621,-13.4814453125,-85.6591796875,-34.8486328125
1.2304397,-14.0673828125,-83.7548828125,-30.2099609375
1.2535185,-14.5068359375,-82.9248046875,-10.8251953125
1.2938777,-13.8720703125,-82.2412109375,12.9052734375
1.3166153,-14.1162109375,-81.8505859375,27.4072265625
1.3536971,-14.4580078125,-82.7783203125,31.7041015625
1.3760746,-14.7509765625,-82.3388671875,29.2626953125
1.4128244,-15.9716796875,-83.4130859375,22.8662109375
1.4326423,-16.6064453125,-83.0224609375,13.7353515625
1.4678161,-17.7783203125,-83.9501953125,3.7255859375
1.4947706,-18.4130859375,-84.3408203125,-3.3056640625
1.5317875,-18.9013671875,-83.8037109375,-7.0166015625
1.5568126,-20.0732421875,-84.1943359375,-7.6025390625
1.5939102,-20.9033203125,-84.7802734375,-7.5537109375
1.6148733,-17.9248046875,-85.0732421875,-8.8232421875
1.6528643,-14.3115234375,-85.1220703125,-10.5322265625
1.6751701,-12.1142578125,-86.0986328125,-13.2177734375
1.7131104,-11.7724609375,-86.5869140625,-16.3916015625
1.7379668,-11.1865234375,-87.4658203125,-19.8095703125
1.7771126,-11.5771484375,-87.5634765625,-23.8623046875
1.7970178,-11.6259765625,-88.4912109375,-29.1845703125
1.8320925,-12.9931640625,-87.8564453125,-32.9443359375
1.8540475,-13.3349609375,-85.9033203125,-25.8642578125
1.8898726,-14.0673828125,-84.6337890625,-4.3798828125
1.9173766,-13.5302734375,-84.5361328125,19.2041015625
1.9516502,-14.3115234375,-83.5107421875,33.7548828125
1.986244,-14.3115234375,-84.5361328125,37.4658203125
2.0082116,-15.7763671875,-84.5361328125,35.3662109375
2.0362991,-16.1181640625,-85.7568359375,28.6279296875
2.0705274,-17.2900390625,-86.1474609375,19.5947265625
2.1046909,-18.0712890625,-86.1962890625,9.5361328125
2.1294967,-18.7548828125,-86.0986328125,2.9931640625
2.1655187,-19.8291015625,-86.3427734375,0.4541015625
2.1886277,-20.8544921875,-86.2451171875,0.1611328125
2.2215271,-21.0986328125,-86.9287109375,0.3564453125
2.2494799,-18.3154296875,-87.6611328125,0.2099609375
2.277594,-15.2392578125,-87.8564453125,-2.1826171875
2.3115446,-12.5537109375,-88.4423828125,-5.6494140625
2.3397284,-11.9677734375,-88.9306640625,-10.1904296875
2.3726106,-11.6259765625,-89.6630859375,-14.4384765625
2.4015421,-11.8212890625,-90.4443359375,-19.3701171875
2.4305923,-13.0908203125,-90.6396484375,-23.6669921875
2.4627475,-14.4091796875,-90.8837890625,-28.0615234375
2.4915336,-14.3115234375,-89.6142578125,-25.5224609375
2.5185894,-14.5068359375,-87.6611328125,-5.3076171875
2.551607,-14.5068359375,-86.7822265625,18.8134765625
2.5815792,-14.5556640625,-86.3916015625,36.7822265625
2.6125487,-15.2880859375,-86.8798828125,41.8115234375
2.641616,-16.0693359375,-86.8798828125,39.7607421875
2.6727759,-16.8017578125,-87.6123046875,32.7783203125
2.7007389,-18.0712890625,-88.0029296875,22.9638671875
2.7316108,-18.7548828125,-88.3447265625,13.4912109375
2.7615313,-19.2919921875,-88.6376953125,6.2158203125
2.7946798,-20.8056640625,-88.5888671875,2.7490234375
2.821555,-21.1962890625,-88.0029296875,1.6259765625
2.8515594,-22.7099609375,-88.9794921875,3.5302734375
2.8836361,-21.0498046875,-88.6865234375,3.6279296875
2.9135973,-17.1435546875,-89.5654296875,3.0908203125
2.9439854,-14.1650390625,-90.3466796875,0.9912109375
2.9748563,-13.1396484375,-90.5419921875,-2.1826171875
3.0047711,-13.1884765625,-90.7861328125,-5.7958984375
3.0367881,-13.2861328125,-91.7138671875,-10.4345703125
3.064403,-14.1162109375,-92.5439453125,-15.3662109375
3.0948537,-14.4091796875,-92.4951171875,-19.5654296875
3.1266942,-15.4833984375,-91.5185546875,-20.3466796875
3.1638265,-15.3857421875,-89.6142578125,-4.5751953125
3.1867024,-16.1669921875,-88.8330078125,19.7412109375
3.2288827,-15.9716796875,-88.5888671875,39.1259765625
3.2447914,-16.4111328125,-88.8818359375,45.6689453125
3.2748831,-16.7529296875,-89.1748046875,44.2041015625
3.3159242,-17.9736328125,-89.5654296875,37.6123046875
3.3347782,-18.2177734375,-90.3955078125,26.8212890625
3.3657789,-19.2431640625,-90.3466796875,15.9326171875
3.4091764,-19.4384765625,-90.7861328125,7.2412109375
3.4239254,-21.1962890625,-90.2978515625,4.1162109375
3.4592214,-21.5380859375,-90.6396484375,3.9208984375
3.4985541,-22.9541015625,-90.6884765625,4.9951171875
3.5157488,-23.3447265625,-91.7138671875,5.7275390625
3.5502056,-19.7314453125,-91.8115234375,3.0908203125
3.6043882,-16.3134765625,-92.2021484375,0.8935546875
3.6081949,-14.7509765625,-92.7392578125,-2.9638671875
3.6506481,-14.3603515625,-92.9833984375,-6.6748046875
3.6666883,-14.0185546875,-93.9111328125,-11.8505859375
3.7132745,-14.9462890625,-94.0087890625,-16.6357421875
3.7300716,-15.9228515625,-94.3994140625,-21.4208984375
3.7751088,-17.1435546875,-93.6181640625,-22.0556640625
3.7880536,-17.1435546875,-91.9091796875,-6.3818359375
3.8340956,-16.8017578125,-90.3955078125,18.0322265625
3.846003,-17.5341796875,-90.4443359375,35.5126953125
3.8910588,-17.4365234375,-90.6884765625,41.5673828125
3.9062402,-17.6806640625,-91.1279296875,39.3701171875
3.9479117,-18.5107421875,-91.5185546875,32.0947265625
3.9693041,-19.1455078125,-92.2998046875,21.6455078125
4.0130872,-19.9267578125,-92.8369140625,9.7802734375
4.0295124,-20.8056640625,-92.5927734375,1.8701171875
4.0689043,-21.5380859375,-92.2509765625,-0.5712890625
4.100237,-22.6611328125,-92.5927734375,0.3076171875
4.1222374,-23.3935546875,-92.8369140625,0.6494140625
4.1627991,-23.1005859375,-93.1298828125,0.4541015625
4.184167,-20.5126953125,-93.2763671875,-1.5966796875
4.2236883,-17.8271484375,-93.6181640625,-4.3310546875
4.2398968,-15.7275390625,-93.8134765625,-8.5302734375
4.2803542,-15.2880859375,-94.7412109375,-12.6318359375
4.2993636,-15.7275390625,-95.3759765625,-17.2705078125
4.3375239,-16.1669921875,-96.1572265625,-22.6416015625
4.3614118,-16.9482421875,-95.9130859375,-26.7919921875
4.3999047,-18.0712890625,-94.8876953125,-25.4736328125
4.424181,-18.5107421875,-92.2998046875,-7.2607421875
4.4795566,-17.6318359375,-91.7626953125,18.5205078125
4.4841726,-18.3154296875,-92.0556640625,35.5615234375
4.5213389,-18.8525390625,-91.9091796875,41.3720703125
4.541003,-19.1455078125,-91.9580078125,39.1259765625
4.5782825,-19.7802734375,-92.2509765625,31.8017578125
4.6043772,-20.3173828125,-93.2763671875,21.3037109375
4.6563876,-21.0009765625,-93.0810546875,10.9521484375
4.6602455,-21.9775390625,-93.5205078125,3.6767578125
4.703,-22.5634765625,-92.6416015625,0.5517578125
4.7229326,-23.4423828125,-93.2275390625,1.1376953125
4.7604747,-24.7119140625,-93.5693359375,1.3818359375
4.7857918,-24.3701171875,-94.2529296875,1.1865234375
4.8428809,-21.4404296875,-94.1552734375,-1.3525390625
4.8466332,-17.5830078125,-94.6923828125,-4.1845703125
4.8734219,-16.0205078125,-94.7412109375,-7.6025390625
4.9201435,-15.7763671875,-95.6201171875,-11.7041015625
4.9404071,-15.9716796875,-96.0107421875,-16.3427734375
4.9655131,-16.2158203125,-96.4990234375,-21.7626953125
5.0133451,-16.9482421875,-96.3037109375,-25.6689453125
5.025198,-17.8271484375,-94.6435546875,-21.4208984375
5.0767575,-18.5595703125,-92.7880859375,-0.0341796875
5.101786,-18.1201171875,-92.2509765625,27.3583984375
5.1175384,-18.8525390625,-91.4208984375,43.7646484375
5.1542693,-18.9013671875,-91.6162109375,48.5498046875
5.1783372,-19.5361328125,-91.7138671875,44.9365234375
5.2082534,-20.1708984375,-92.1533203125,37.6123046875
5.237689,-21.0009765625,-92.8857421875,26.8701171875
5.2929264,-21.2451171875,-92.9345703125,16.3232421875
5.3120358,-22.5146484375,-92.5927734375,8.7548828125
5.3233058,-23.1494140625,-92.5439453125,5.9716796875
5.362489,-24.0771484375,-92.9345703125,6.0693359375
5.3873279,-24.1748046875,-92.7880859375,6.9482421875
5.4271156,-24.6142578125,-93.8623046875,6.8017578125
5.445843,-21.8798828125,-93.7158203125,5.5810546875
5.4860467,-18.0224609375,-93.9599609375,1.8212890625
5.5099527,-15.9716796875,-94.4970703125,-2.0849609375
5.5499073,-15.9228515625,-95.2783203125,-6.3818359375
5.5688366,-16.3623046875,-95.7177734375,-10.6787109375
5.6085374,-15.8740234375,-96.0107421875,-16.7822265625
5.6360501,-17.0458984375,-95.8642578125,-20.0048828125
5.6576753,-18.0224609375,-93.6669921875,-12.5830078125
5.7131878,-18.9501953125,-92.0068359375,12.2705078125
5.7333741,-18.4130859375,-91.4697265625,38.5888671875
5.7522757,-18.4130859375,-90.9814453125,53.6767578125
5.7803926,-18.5595703125,-90.8349609375,56.3134765625
5.8354051,-19.5849609375,-91.1279296875,52.3095703125
5.8426648,-20.0732421875,-92.2509765625,43.7646484375
5.871893,-21.1962890625,-92.3974609375,32.9248046875
5.9133009,-22.0263671875,-92.8857421875,22.1337890625
5.9321201,-22.5146484375,-92.9345703125,14.6630859375
5.9694088,-23.5888671875,-92.4462890625,12.0751953125
5.9898765,-24.2724609375,-92.4951171875,12.5634765625
6.028465,-24.9560546875,-92.7392578125,13.4912109375
6.0483881,-25.3466796875,-92.9833984375,13.0029296875
6.0865458,-22.0263671875,-93.9599609375,10.9521484375
6.1145504,-18.1689453125,-93.8134765625,7.8759765625
6.1519065,-16.8505859375,-94.2041015625,3.9208984375
6.1738693,-16.1669921875,-94.6923828125,-0.8642578125
6.2038409,-16.1669921875,-95.1318359375,-5.6494140625
6.2575827,-16.2646484375,-95.8154296875,-10.2392578125
6.262215,-17.2900390625,-95.8642578125,-15.6103515625
6.3027166,-18.4130859375,-93.3251953125,-10.0927734375
6.3221107,-18.8525390625,-91.7626953125,13.3447265625
6.3582849,-19.0478515625,-90.6396484375,41.0302734375
6.3814122,-18.8037109375,-90.5419921875,57.4853515625
6.4268634,-18.9990234375,-90.6396484375,61.0986328125
6.44368,-19.6826171875,-90.9326171875,56.7041015625
6.4729873,-20.7568359375,-91.5185546875,47.9150390625
6.5062046,-21.5869140625,-91.7138671875,37.1728515625
6.5523319,-22.5146484375,-92.7392578125,26.2841796875
6.5676486,-22.8564453125,-91.9091796875,17.9345703125
6.5969096,-23.2958984375,-92.5927734375,14.2724609375
6.6236719,-25.3955078125,-92.8857421875,15.3955078125
6.6764777,-25.5419921875,-92.2021484375,16.3720703125
6.6849965,-25.5419921875,-92.9345703125,16.1767578125
6.7258921,-23.7353515625,-93.4716796875,14.3212890625
6.7461577,-19.8291015625,-93.7158203125,11.3916015625
6.7753727,-17.8759765625,-94.2041015625,7.8759765625
6.8047665,-17.0947265625,-94.5947265625,2.5048828125
6.8369962,-17.1435546875,-95.4248046875,-2.0849609375
6.8661816,-17.3876953125,-95.9130859375,-7.1630859375
6.8985359,-18.2177734375,-96.5966796875,-12.1923828125
6.9268353,-18.9501953125,-94.6435546875,-12.4853515625
6.9559556,-19.6826171875,-92.5927734375,5.4345703125
6.9880271,-19.7314453125,-91.8603515625,33.7060546875
7.0191146,-19.5361328125,-91.3720703125,55.0927734375
7.0461181,-20.0244140625,-91.0791015625,62.6123046875
7.078548,-20.7080078125,-91.3720703125,61.1962890625
7.1069968,-21.6357421875,-92.1044921875,53.4814453125
7.1356677,-22.2705078125,-93.0810546875,42.8369140625
7.1782873,-22.9052734375,-93.4716796875,30.3369140625
7.1960926,-23.8330078125,-93.2763671875,21.4501953125
7.2303531,-24.6142578125,-93.8134765625,16.4208984375
7.2585079,-25.2001953125,-93.0322265625,17.2998046875
7.2877716,-25.8349609375,-93.6181640625,19.0576171875
7.3196751,-26.8603515625,-94.0087890625,18.4716796875
7.3491158,-25.8837890625,-94.3994140625,17.5927734375
7.3766751,-22.6611328125,-94.8876953125,14.9072265625
7.4096667,-19.2431640625,-95.5712890625,11.2939453125
7.4391308,-18.1689453125,-95.4736328125,6.8994140625
7.4716179,-18.1689453125,-96.0595703125,1.7236328125
7.500691,-18.8037109375,-97.1337890625,-3.4033203125
7.52887,-19.2919921875,-97.1337890625,-8.1396484375
7.55798,-20.0732421875,-95.8154296875,-11.3623046875
7.5885923,-20.9033203125,-94.0087890625,1.9677734375
7.6203327,-21.2939453125,-92.5439453125,27.5537109375
7.6526552,-21.2451171875,-92.6416015625,50.2099609375
7.6806845,-20.9521484375,-92.7392578125,59.5849609375
7.7088172,-21.7822265625,-92.7392578125,58.6572265625
7.742757,-21.8798828125,-93.0810546875,51.5283203125
7.7703284,-22.3681640625,-94.5458984375,41.4208984375
7.8028839,-23.5400390625,-94.3017578125,29.0185546875
7.8319079,-24.2724609375,-94.3994140625,19.3017578125
7.8622774,-24.7119140625,-94.4482421875,14.9072265625
7.8916173,-25.8837890625,-94.5458984375,14.5654296875
7.9202508,-26.4697265625,-94.7412109375,15.5419921875
7.9520619,-27.3486328125,-95.4736328125,15.9326171875
7.98534,-27.1533203125,-96.4990234375,14.2724609375
8.0122788,-24.7119140625,-96.4990234375,11.6357421875
8.045455,-21.5380859375,-96.2548828125,7.5341796875
8.0736038,-19.4384765625,-97.4267578125,2.8955078125
8.1036508,-19.6826171875,-97.4755859375,-2.5732421875
8.1316572,-19.7314453125,-98.8427734375,-8.1884765625
8.1749031,-20.5126953125,-99.6240234375,-13.0224609375
8.1939592,-21.2939453125,-96.5966796875,-13.1689453125
8.2252916,-21.9775390625,-95.6201171875,3.0419921875
8.2741826,-23.1005859375,-94.3017578125,29.0673828125
8.2929105,-23.0029296875,-93.9599609375,48.8916015625
8.3309779,-22.6611328125,-94.2529296875,54.9462890625
8.3449485,-23.1494140625,-94.5947265625,51.9189453125
8.3777221,-23.4912109375,-95.4736328125,43.9599609375
8.4073278,-23.3935546875,-96.4013671875,33.1689453125
8.4605584,-24.8583984375,-96.3037109375,21.1572265625
8.46409,-24.9072265625,-96.5966796875,12.0263671875
8.4963701,-25.6396484375,-96.4013671875,9.5849609375
8.5410662,-26.4697265625,-96.2060546875,9.1455078125
8.5568604,-26.7626953125,-96.6455078125,11.1962890625
8.6159782,-27.6904296875,-96.9384765625,10.8056640625
8.61971,-27.4462890625,-97.3291015625,9.1455078125
8.65747,-24.8095703125,-97.7197265625,5.6298828125
8.6773008,-21.5869140625,-97.7685546875,1.9189453125
8.7178105,-19.9755859375,-98.6474609375,-2.5244140625
8.7372011,-19.4384765625,-99.3310546875,-7.8955078125
8.794941,-20.5615234375,-99.3798828125,-13.2177734375
8.7986622,-20.9521484375,-99.3310546875,-17.2705078125
8.8523917,-22.2216796875,-97.3779296875,-9.3115234375
8.8696253,-23.1494140625,-95.2294921875,15.0048828125
8.8903001,-23.0517578125,-95.2294921875,40.2978515625
8.9299162,-23.0029296875,-95.4248046875,53.6767578125
8.9488822,-22.9052734375,-95.2294921875,55.1904296875
8.9939471,-23.6376953125,-96.1083984375,49.5263671875
9.0131736,-24.1748046875,-96.9873046875,40.3466796875
9.0358036,-24.6142578125,-96.2548828125,27.8955078125
9.0773398,-25.3955078125,-96.6455078125,17.5927734375
9.0964473,-26.2744140625,-96.5966796875,11.4892578125
9.1407177,-27.2021484375,-96.5478515625,9.6826171875
9.1614869,-27.3974609375,-96.4013671875,10.8544921875
9.1850443,-28.1787109375,-97.2802734375,11.0986328125
9.2243769,-27.9345703125,-97.4267578125,10.7568359375
9.2491702,-27.4462890625,-97.9638671875,8.6572265625
9.2855464,-24.0771484375,-98.9404296875,5.3369140625
9.3106658,-21.2939453125,-98.6962890625,0.3076171875
9.3451273,-20.1220703125,-99.7216796875,-3.6474609375
9.3702319,-20.8056640625,-100.0146484375,-8.9697265625
9.4048295,-21.0009765625,-100.3076171875,-14.5849609375
9.4278063,-21.6845703125,-99.2333984375,-13.3642578125
9.4678379,-22.6123046875,-97.6708984375,6.3134765625
9.4888357,-22.8564453125,-96.3037109375,34.9755859375
9.5279743,-23.6376953125,-95.4248046875,55.7763671875
9.5497021,-23.3447265625,-95.8642578125,63.5400390625
9.5893672,-23.2958984375,-95.9130859375,61.0009765625
9.609244,-23.6865234375,-95.7666015625,53.7255859375
9.6473938,-24.5654296875,-96.4501953125,43.9111328125
9.6677037,-25.2978515625,-96.6943359375,32.5341796875
9.7055912,-25.7373046875,-96.8408203125,23.2080078125
9.7302311,-26.7626953125,-96.4013671875,18.5205078125
9.7683647,-27.1533203125,-96.2060546875,17.3974609375
9.7943443,-27.3974609375,-96.6455078125,18.4228515625
9.8314732,-28.5693359375,-97.3779296875,18.7646484375
9.8522219,-28.4228515625,-97.0849609375,16.4697265625
9.8903386,-26.2255859375,-98.1103515625,13.4912109375
9.9102013,-22.5634765625,-97.2314453125,9.5849609375
9.9473106,-20.3173828125,-98.7939453125,5.0927734375
9.9713603,-19.6826171875,-98.8916015625,-0.3271484375
10.0097826,-20.3173828125,-99.6240234375,-5.4541015625
10.0292221,-20.2685546875,-98.5498046875,-10.1904296875
10.066763,-21.3427734375,-96.8896484375,-2.1826171875
10.0918642,-22.0751953125,-94.9853515625,22.5244140625
10.1279073,-22.3681640625,-94.0576171875,49.2333984375
10.1540985,-22.7587890625,-93.4228515625,64.7607421875
10.197512,-22.5146484375,-94.0087890625,67.7392578125
10.2181905,-22.7587890625,-94.0576171875,62.8564453125
10.2561522,-23.1005859375,-94.3994140625,54.2138671875
10.2771788,-23.5400390625,-95.0341796875,43.1787109375
10.3235658,-24.0771484375,-94.5947265625,31.6552734375
10.3434556,-24.6630859375,-94.4482421875,23.7939453125
10.3800753,-25.2001953125,-95.0341796875,20.9619140625
10.3934397,-26.8115234375,-94.9853515625,21.5478515625
10.4290295,-27.0068359375,-95.0830078125,22.5732421875
10.4562061,-27.8857421875,-95.5712890625,22.2314453125
10.4941243,-27.2021484375,-96.2548828125,19.3017578125
10.5173356,-24.8095703125,-95.7177734375,16.5185546875
10.5534153,-21.0986328125,-96.4013671875,12.3681640625
10.5734271,-19.4384765625,-97.1337890625,7.1435546875
10.6106667,-19.1943359375,-97.3291015625,1.8701171875
10.6374929,-19.5361328125,-97.7197265625,-3.5009765625
10.675679,-19.8779296875,-97.6220703125,-7.8466796875
10.6973779,-21.0986328125,-95.5712890625,0.0634765625
10.7334149,-21.2939453125,-93.1787109375,25.6494140625
10.7546634,-22.1240234375,-92.9833984375,52.3095703125
10.790625,-21.5380859375,-92.9345703125,67.3486328125
10.816818,-21.6845703125,-92.8369140625,69.7900390625
10.8517439,-22.4169921875,-92.4951171875,65.1513671875
10.8786465,-22.8564453125,-93.7158203125,56.5576171875
10.9157339,-22.6611328125,-93.5693359375,44.5947265625
10.9386368,-24.0283203125,-93.6669921875,33.3154296875
10.9787572,-25.2490234375,-93.5693359375,25.6005859375
11.0076913,-25.2978515625,-93.2763671875,23.4521484375
11.0277777,-26.3232421875,-93.4228515625,23.8427734375
11.0649034,-27.1533203125,-93.9111328125,24.4287109375
11.0847532,-27.8857421875,-94.3505859375,24.0380859375
11.1219061,-28.0810546875,-94.9365234375,21.0107421875
11.148944,-25.0048828125,-95.3759765625,16.8115234375
11.1850191,-21.2451171875,-95.6201171875,13.2470703125
11.2083734,-19.7802734375,-96.1083984375,8.3642578125
11.2455266,-19.0478515625,-96.1083984375,3.2373046875
11.2725655,-19.8779296875,-96.7919921875,-2.1826171875
11.3099305,-20.2197265625,-96.1572265625,-6.4794921875
11.3308734,-20.8056640625,-94.3017578125,-1.8408203125
11.3680733,-21.4404296875,-93.0810546875,20.1806640625
11.3889775,-21.7333984375,-92.9345703125,47.6220703125
11.4270289,-22.3193359375,-91.8603515625,63.6865234375
11.4508261,-21.8798828125,-92.3486328125,67.9833984375
11.4879167,-22.0263671875,-92.1533203125,63.1005859375
11.5089399,-22.4658203125,-93.1787109375,53.9697265625
11.5439853,-23.7353515625,-93.3251953125,42.6416015625
11.5695053,-24.4677734375,-93.8623046875,31.0693359375
11.6065963,-24.8583984375,-93.5205078125,23.5009765625
11.6296192,-25.7373046875,-93.1787109375,21.3525390625
11.6657213,-26.3232421875,-93.1787109375,22.0361328125
11.6926782,-27.7880859375,-93.5205078125,22.7197265625
11.7278643,-27.9833984375,-93.2763671875,22.4755859375
11.7479906,-28.3251953125,-94.3017578125,20.0341796875
11.7850175,-26.5185546875,-95.1806640625,16.9091796875
11.8122777,-22.6123046875,-95.0830078125,13.3935546875
11.8492564,-20.6103515625,-95.8154296875,8.6083984375
11.872502,-20.2197265625,-95.9619140625,3.1396484375
11.912551,-20.4150390625,-96.7431640625,-2.1826171875
11.9334936,-20.6103515625,-95.7177734375,-5.6494140625
11.9684947,-21.5869140625,-94.0576171875,3.2373046875
11.9955577,-22.5634765625,-92.7880859375,27.0654296875
12.0325993,-23.1982421875,-91.5185546875,51.3818359375
12.0519812,-22.3193359375,-92.0068359375,63.0517578125
12.090154,-22.5146484375,-92.9345703125,63.3447265625
12.1127331,-23.3447265625,-92.9833984375,57.6318359375
12.1492478,-23.1982421875,-93.8623046875,47.6708984375
12.1745962,-24.4189453125,-94.0087890625,35.8056640625
12.2106991,-24.4677734375,-93.9111328125,25.2587890625
12.2338855,-25.4443359375,-93.8134765625,20.9619140625
12.2719056,-26.5673828125,-93.3740234375,20.4736328125
12.295843,-26.7626953125,-94.0087890625,21.6943359375
12.331918,-27.3974609375,-94.4970703125,21.9873046875
12.3567808,-28.7158203125,-95.1806640625,21.0107421875
12.3937977,-28.3251953125,-95.2783203125,18.3740234375
12.418799,-25.6884765625,-95.6689453125,14.6630859375
12.4659651,-22.4169921875,-95.6201171875,9.4873046875
12.4758591,-21.0009765625,-96.5966796875,5.4833984375
12.5281064,-20.1708984375,-96.9873046875,0.2099609375
12.5349044,-20.6591796875,-97.1337890625,-4.6240234375
12.5874788,-21.2939453125,-96.0595703125,-4.6728515625
12.5955742,-21.9287109375,-93.2275390625,13.4423828125
12.6311213,-23.3447265625,-92.2021484375,40.0537109375
12.6554245,-23.1494140625,-92.4462890625,58.6083984375
12.693501,-22.7587890625,-92.3974609375,64.2724609375
12.7344522,-23.2470703125,-92.8369140625,61.5869140625
12.753505,-23.0517578125,-93.5205078125,53.2861328125
12.7786764,-23.9306640625,-94.3017578125,42.4462890625
12.8055873,-24.7119140625,-94.3017578125,30.0927734375
12.839607,-25.2490234375,-94.2041015625,21.9384765625
12.8696916,-25.7373046875,-93.4716796875,18.8134765625
12.8976722,-26.4697265625,-94.3994140625,19.1552734375
12.9286291,-27.6416015625,-94.2041015625,19.2529296875
12.9756677,-28.1298828125,-94.2041015625,19.4482421875
12.9910539,-28.8623046875,-94.5947265625,16.9580078125
13.0345169,-27.9345703125,-95.7177734375,14.1748046875
13.0545293,-24.4189453125,-95.8154296875,9.3896484375
13.0936857,-21.3916015625,-96.4013671875,4.8974609375
13.1137496,-20.2197265625,-96.5966796875,0.5029296875
13.1396698,-20.3662109375,-96.8896484375,-5.7470703125
13.1971186,-20.7568359375,-96.3037109375,-9.6533203125
13.2006668,-21.0009765625,-94.1552734375,-2.3291015625
13.2299302,-22.3681640625,-92.6416015625,22.3779296875
13.262062,-23.0517578125,-92.2509765625,47.1826171875
13.3029528,-23.2470703125,-91.9091796875,61.8310546875
13.3227892,-23.3447265625,-92.3974609375,64.0771484375
13.3723653,-22.6123046875,-92.2509765625,60.1708984375
13.3922111,-23.1005859375,-93.1298828125,51.0888671875
13.4099525,-24.2236328125,-93.6669921875,39.7607421875
13.460625,-24.9560546875,-93.4716796875,29.3603515625
13.473531,-25.5419921875,-93.1298828125,22.2802734375
13.5268005,-26.4697265625,-93.4716796875,19.5458984375
13.5327732,-26.9580078125,-93.3251953125,19.3994140625
13.5780353,-27.5927734375,-94.1064453125,19.0576171875
13.5994476,-28.7158203125,-93.8623046875,18.4228515625
13.652055,-29.2529296875,-94.1552734375,16.0791015625
13.6719749,-26.8603515625,-94.8388671875,12.9052734375
13.6860225,-23.6376953125,-95.4736328125,8.6572265625
13.7272258,-20.8056640625,-95.3759765625,3.3349609375
13.7472876,-19.5849609375,-96.3037109375,-1.7919921875
13.7892918,-20.3173828125,-96.8408203125,-7.2607421875
13.8220915,-20.5615234375,-95.4248046875,-11.1181640625
13.834881,-20.9521484375,-93.5693359375,-0.8642578125
13.8783875,-21.7822265625,-92.4951171875,23.9892578125
13.9013286,-22.8076171875,-92.0556640625,47.5244140625
13.9255424,-22.5146484375,-91.9091796875,60.0244140625
13.9560563,-22.7099609375,-91.9580078125,60.4150390625
14.0098247,-22.6611328125,-92.8857421875,55.9716796875
14.0296966,-23.1982421875,-93.2275390625,47.6708984375
14.0455952,-23.4423828125,-93.3740234375,36.3916015625
14.1025814,-23.7841796875,-92.8857421875,25.7958984375
14.1228909,-25.0048828125,-93.2763671875,19.5458984375
14.1342791,-25.7373046875,-93.1298828125,17.0068359375
14.1940472,-26.4208984375,-93.1298828125,16.9580078125
14.1974791,-27.5439453125,-93.7646484375,17.5439453125
14.2296497,-27.9833984375,-94.2041015625,15.8837890625
14.2877343,-28.1787109375,-94.0576171875,14.1259765625
14.2920137,-26.7626953125,-94.5458984375,9.8291015625
14.317751,-22.5634765625,-95.0341796875,6.0693359375
14.3570553,-20.2197265625,-95.1318359375,1.0888671875
14.3793512,-19.6826171875,-95.7177734375,-4.6240234375
14.4324536,-19.8779296875,-96.5478515625,-10.1416015625
14.4521477,-19.6826171875,-95.6201171875,-13.4619140625
14.4705817,-20.3173828125,-93.3251953125,-6.9677734375
14.5124272,-21.1962890625,-91.5673828125,16.0791015625
14.5300224,-21.6845703125,-91.7138671875,40.2490234375
14.5655039,-21.6357421875,-91.1767578125,52.9931640625
14.5874443,-21.6845703125,-91.9580078125,54.8486328125
14.6273739,-22.1240234375,-91.9580078125,49.7216796875
14.6506195,-22.4658203125,-92.1533203125,41.5185546875
14.6956804,-22.8076171875,-92.6904296875,30.4833984375
14.7145496,-24.0283203125,-93.0322265625,20.6689453125
14.7537333,-24.1748046875,-92.8369140625,14.0283203125
14.7738923,-24.9560546875,-92.2509765625,11.2451171875
14.8099676,-26.1279296875,-93.3251953125,11.6845703125
14.8299901,-26.9091796875,-93.5205078125,12.0751953125
14.8672296,-28.0810546875,-93.9599609375,10.9033203125
14.887139,-28.0322265625,-94.0576171875,7.6318359375
14.931707,-27.2021484375,-94.5947265625,4.9462890625
14.951745,-23.5888671875,-94.7412109375,1.0888671875
14.9918568,-21.0498046875,-95.5712890625,-4.0380859375
15.0138117,-19.6826171875,-96.0595703125,-8.5302734375
15.0576902,-19.4873046875,-96.5478515625,-13.5595703125
15.0779425,-19.7802734375,-96.4501953125,-17.6123046875
15.1160455,-20.6103515625,-94.1064453125,-14.0966796875
15.137548,-21.7822265625,-92.3974609375,5.7763671875
15.1951982,-21.8798828125,-91.6162109375,30.0927734375
15.1986971,-22.5146484375,-91.7138671875,44.2529296875
15.2574296,-22.2216796875,-92.1044921875,48.8916015625
15.2608695,-22.0263671875,-92.8369140625,44.8388671875
15.3036804,-22.8564453125,-93.0810546875,37.6123046875
15.3227858,-23.4423828125,-93.5205078125,26.6748046875
15.3406306,-23.7353515625,-93.7646484375,16.1279296875
15.3770845,-24.6142578125,-93.8623046875,9.5849609375
15.4034858,-25.3466796875,-93.4716796875,7.4365234375
15.4450579,-26.3232421875,-93.6181640625,8.5595703125
15.4649349,-26.6162109375,-93.5693359375,9.3896484375
15.5018379,-27.6416015625,-94.3505859375,7.8271484375
15.5240159,-28.2275390625,-94.9365234375,5.5810546875
15.5619365,-27.5439453125,-95.3271484375,2.8466796875
15.5819762,-25.3955078125,-95.2783203125,-2.0361328125
15.6220372,-21.9775390625,-96.2060546875,-6.2353515625
15.6440362,-20.6591796875,-96.8896484375,-10.6298828125
15.6811355,-20.3662109375,-97.4267578125,-15.5126953125
15.7015437,-20.1708984375,-96.3525390625,-20.1513671875
15.7393059,-21.1474609375,-94.8388671875,-15.3662109375
15.7653326,-22.1240234375,-93.6669921875,4.6533203125
15.8013936,-22.6611328125,-92.2021484375,28.0419921875
15.8233216,-23.4423828125,-92.8857421875,41.9580078125
15.8624455,-23.1494140625,-93.1787109375,44.5458984375
15.8854115,-22.7099609375,-93.1787109375,40.7373046875
15.9215529,-23.1982421875,-94.1064453125,31.9970703125
15.9466401,-23.5888671875,-95.2783203125,21.3037109375
15.9835996,-24.5166015625,-94.7412109375,10.5615234375
16.0048367,-25.5419921875,-94.4482421875,4.8486328125
16.0427334,-25.9326171875,-94.3017578125,4.1650390625
16.0658588,-26.4697265625,-94.3505859375,4.4580078125
16.1018949,-27.6904296875,-94.2529296875,4.4580078125
16.126353,-28.2275390625,-95.6201171875,3.0908203125
16.1632732,-29.2529296875,-95.9130859375,0.9912109375
16.1842107,-29.3505859375,-96.4990234375,-2.9638671875
16.2223357,-26.4208984375,-96.9873046875,-7.0166015625
16.2462984,-23.4423828125,-97.0849609375,-11.5576171875
16.2853605,-20.9521484375,-97.6708984375,-16.7333984375
16.3073443,-20.9033203125,-98.0126953125,-21.8603515625
16.347731,-21.5380859375,-96.6943359375,-25.4248046875
16.3676414,-21.5380859375,-94.3994140625,-16.0009765625
16.4139647,-22.8076171875,-93.8134765625,8.5595703125
16.4332977,-23.4912109375,-92.8369140625,32.0458984375
16.4715228,-23.8330078125,-93.3251953125,45.1318359375
16.487284,-23.6865234375,-93.3251953125,46.5966796875
16.5243867,-23.2958984375,-93.3740234375,42.4951171875
16.5494394,-23.8818359375,-93.8623046875,33.9501953125
16.5874847,-24.7119140625,-93.9111328125,23.2568359375
16.6075337,-24.9560546875,-93.9599609375,13.2958984375
16.6464123,-26.0302734375,-94.1064453125,7.2412109375
16.6670244,-26.9580078125,-94.2041015625,5.4345703125
16.7056569,-27.4951171875,-95.1318359375,4.7021484375
16.7297233,-28.0810546875,-94.4970703125,4.8486328125
16.7679285,-28.8134765625,-94.9365234375,3.5302734375
16.7919843,-30.1806640625,-95.5712890625,1.2841796875
16.827973,-29.2041015625,-96.1572265625,-2.3779296875
16.8490553,-26.1767578125,-96.5478515625,-6.5283203125
16.8852075,-22.2705078125,-97.5244140625,-11.2158203125
16.9102014,-21.0986328125,-98.0615234375,-16.0986328125
16.9463884,-20.9033203125,-97.8662109375,-21.0302734375
16.9714099,-20.2685546875,-96.2060546875,-23.1298828125
17.0073648,-21.2939453125,-93.9599609375,-9.6533203125
17.0323643,-22.1240234375,-93.1787109375,16.5185546875
17.0693866,-22.9541015625,-92.7392578125,38.2958984375
17.0894317,-23.5400390625,-92.9345703125,49.0869140625
17.1264874,-23.4423828125,-92.8857421875,49.4775390625
17.1536739,-23.2470703125,-93.2275390625,44.5947265625
17.1906686,-23.6376953125,-93.8134765625,35.9521484375
17.212698,-23.9306640625,-93.6669921875,25.7958984375
17.2495859,-24.8095703125,-94.1552734375,15.6884765625
17.2708606,-25.5419921875,-93.7158203125,9.7802734375
17.3053392,-26.6162109375,-93.7646484375,7.7783203125
17.3347734,-27.2021484375,-94.2041015625,7.7294921875
17.3654535,-27.4951171875,-94.4970703125,7.7783203125
17.3926079,-28.6669921875,-95.3759765625,6.8017578125
17.4213395,-29.4482421875,-95.1806640625,3.6767578125
17.4552898,-28.5205078125,-96.1083984375,0.1123046875
17.4833146,-25.5908203125,-96.0595703125,-3.8916015625
17.5182771,-21.6845703125,-96.4501953125,-9.0673828125
17.5453247,-20.7080078125,-97.3291015625,-13.5107421875
17.5903129,-19.6337890625,-97.4267578125,-18.8818359375
17.610263,-20.1220703125,-95.1806640625,-20.2490234375
17.6334582,-20.4150390625,-93.4228515625,-3.2568359375
17.6613724,-22.0751953125,-92.4951171875,22.1337890625
17.6973426,-22.8564453125,-92.2998046875,42.9345703125
17.7292621,-22.5634765625,-92.5927734375,50.7470703125
17.7552696,-22.7587890625,-92.6416015625,50.4541015625
17.8023159,-22.4169921875,-93.3251953125,43.6669921875
17.8202102,-23.1494140625,-93.5205078125,33.5107421875
17.8426201,-23.4423828125,-93.9111328125,22.6220703125
17.8933098,-24.5166015625,-93.3740234375,13.8818359375
17.9132262,-24.9560546875,-93.6669921875,8.9990234375
17.9522944,-25.4931640625,-94.1552734375,8.2177734375
17.9733021,-26.7138671875,-93.8623046875,8.9501953125
18.0133929,-27.3974609375,-94.7412109375,8.4619140625
18.0343665,-28.0322265625,-95.0341796875,7.3876953125
18.055535,-29.2041015625,-96.1572265625,3.8232421875
18.0872972,-28.2763671875,-96.5966796875,0.2099609375
18.1343629,-24.5654296875,-96.8896484375,-3.9404296875
18.1543364,-21.4404296875,-97.4267578125,-8.6279296875
18.1734856,-20.1708984375,-98.0126953125,-13.3154296875
18.22363,-19.6337890625,-97.6708984375,-17.9052734375
18.2435624,-20.0732421875,-96.1083984375,-18.2958984375
18.2643761,-20.4638671875,-94.6435546875,-2.9638671875
18.315412,-21.8798828125,-93.0322265625,21.9873046875
18.336282,-22.1728515625,-93.4228515625,41.2744140625
18.3743694,-22.2216796875,-92.9345703125,47.1337890625
18.3923727,-22.5146484375,-93.8134765625,46.1572265625
18.4333904,-22.2216796875,-94.7900390625,39.7607421875
18.454399,-23.0029296875,-94.5947265625,30.3857421875
18.4953734,-23.4912109375,-95.0830078125,19.6435546875
18.5154183,-24.1748046875,-94.5458984375,11.9287109375
18.5574562,-25.5419921875,-94.6923828125,8.4130859375
18.5793517,-25.6396484375,-94.9365234375,7.9736328125
18.6285469,-26.7138671875,-95.1318359375,8.1689453125
18.6478912,-27.9345703125,-95.6201171875,8.2177734375
18.6589951,-28.2763671875,-96.0595703125,6.3134765625
18.7050691,-28.8623046875,-96.5966796875,2.8955078125
18.723988,-28.4716796875,-97.3291015625,-1.4013671875
18.7672327,-25.7861328125,-97.2314453125,-5.7958984375
18.7862925,-22.2705078125,-97.8173828125,-10.8251953125
18.8232511,-20.4638671875,-98.1591796875,-15.7568359375
18.8431905,-20.5615234375,-96.8896484375,-19.9560546875
18.885359,-21.0498046875,-95.4248046875,-14.8779296875
18.9044598,-20.8544921875,-93.7646484375,6.1181640625
18.9464625,-22.3193359375,-93.5205078125,30.3369140625
18.9655342,-23.0517578125,-93.6669921875,44.2041015625
19.0017286,-22.9541015625,-93.9111328125,46.4013671875
19.0216972,-23.3935546875,-94.3994140625,42.3974609375
19.0617173,-23.0029296875,-95.1318359375,33.9501953125
19.0836093,-22.7099609375,-95.3759765625,22.4755859375
19.1238328,-23.9794921875,-95.4736328125,10.7080078125
19.1458639,-24.1259765625,-95.9619140625,4.0673828125
19.1861483,-25.5419921875,-95.4248046875,2.2607421875
19.2065045,-26.3232421875,-95.9619140625,2.2119140625
19.2435849,-27.2021484375,-95.6201171875,2.0166015625
19.2635763,-27.5439453125,-96.4013671875,0.6494140625
19.3057131,-28.5693359375,-96.5966796875,-1.7431640625
19.327961,-28.7646484375,-96.9873046875,-5.5029296875
19.3650311,-27.8369140625,-96.9873046875,-9.5068359375
19.3852367,-23.9794921875,-97.9638671875,-14.3896484375
19.4291285,-21.4404296875,-98.9404296875,-19.7607421875
19.4492921,-20.7080078125,-98.9404296875,-24.6435546875
19.4892148,-21.0009765625,-97.1337890625,-26.4990234375
19.5087482,-21.2939453125,-94.9853515625,-11.8505859375
19.5637126,-22.0751953125,-94.2041015625,14.6142578125
19.5829687,-23.1494140625,-93.7646484375,36.7822265625
19.5961866,-24.2236328125,-93.4228515625,46.3037109375
19.6384147,-23.9306640625,-93.7158203125,45.7177734375
19.657223,-23.9794921875,-94.4482421875,39.9560546875
19.6948216,-23.7841796875,-95.0341796875,30.4345703125
19.7144107,-24.1748046875,-96.0107421875,19.8876953125
19.7564776,-24.7119140625,-95.5224609375,9.9755859375
19.7753255,-25.9326171875,-95.9130859375,4.1650390625
19.8148695,-26.5185546875,-95.7666015625,2.6025390625
19.8378077,-26.7138671875,-95.9619140625,3.2861328125
19.8904955,-28.1298828125,-96.0595703125,2.8955078125
19.9095329,-28.8623046875,-96.3525390625,1.4306640625
19.9305791,-29.7412109375,-97.2314453125,-1.4013671875
19.9832284,-29.9853515625,-98.1591796875,-5.3076171875
20.0030928,-27.4462890625,-98.4521484375,-9.4580078125
20.0214048,-23.7841796875,-98.8427734375,-14.5361328125
20.0782835,-21.5380859375,-98.9404296875,-19.3212890625
20.0969911,-21.2939453125,-99.1845703125,-25.1318359375
20.1085269,-21.2451171875,-97.5732421875,-26.8896484375
20.1459414,-21.4892578125,-95.4248046875,-11.8505859375
20.1701875,-22.3193359375,-93.9111328125,15.9326171875
20.2194958,-23.9306640625,-94.2529296875,38.5400390625
20.2397768,-23.7841796875,-94.1064453125,49.2333984375
20.2598212,-23.8818359375,-94.4482421875,49.9169921875
20.3144113,-23.6865234375,-95.1318359375,44.0087890625
20.3343099,-24.6142578125,-95.5224609375,34.5361328125
20.3510982,-24.7119140625,-95.4736328125,22.5732421875
20.4087799,-25.3466796875,-95.7177734375,12.2216796875
20.4137687,-26.2744140625,-95.5712890625,5.6298828125
20.468904,-27.2998046875,-95.7666015625,4.2138671875
20.4723521,-27.9833984375,-96.0595703125,4.3603515625
20.5043565,-28.6181640625,-96.4990234375,4.7021484375
20.5320733,-29.1552734375,-97.1337890625,2.9931640625
20.5788964,-30.4736328125,-97.0361328125,0.6982421875
20.5983057,-30.5224609375,-97.3291015625,-3.5986328125
20.6380067,-29.1064453125,-98.2568359375,-7.9931640625
20.6569723,-25.2490234375,-98.2568359375,-12.5830078125
20.6955985,-23.1005859375,-99.4775390625,-18.1494140625
20.7145542,-22.3681640625,-100.0146484375,-23.1787109375
20.7538534,-22.1728515625,-98.9892578125,-27.7197265625
20.7749388,-22.1728515625,-96.4990234375,-18.9306640625
20.813644,-22.9541015625,-95.5224609375,5.8251953125
20.8327642,-23.7841796875,-94.2041015625,32.1923828125
20.8707122,-24.4677734375,-94.7412109375,47.0361328125
20.8969983,-24.8095703125,-95.0830078125,49.5263671875
20.9544135,-24.4677734375,-95.4736328125,45.0830078125
20.9580411,-25.0537109375,-96.0595703125,35.8056640625
20.9819228,-25.2978515625,-96.0107421875,24.9169921875
21.0150978,-25.9326171875,-96.1572265625,12.6123046875
21.0579945,-26.6650390625,-96.4013671875,6.0693359375
21.0909073,-27.3974609375,-96.4013671875,3.9208984375
21.1055144,-28.1298828125,-96.9384765625,4.9462890625
21.1524553,-28.8623046875,-96.9384765625,5.6298828125
21.1638524,-30.0830078125,-97.0849609375,4.8486328125
21.2034202,-30.2783203125,-97.6220703125,1.5771484375
21.2222466,-31.2548828125,-97.8662109375,-1.1083984375
21.2599146,-30.8642578125,-98.7939453125,-5.3076171875
21.2844718,-27.7880859375,-99.3310546875,-9.4091796875
21.3220557,-24.4189453125,-100.1611328125,-15.0244140625
21.3463993,-23.1494140625,-100.6494140625,-19.1748046875
21.3829837,-22.5146484375,-99.6240234375,-23.6669921875
21.4067967,-23.4423828125,-97.1826171875,-19.1748046875
21.4596427,-23.7353515625,-96.2060546875,3.3349609375
21.4807587,-24.8583984375,-95.6689453125,29.0673828125
21.498705,-25.5419921875,-96.1572265625,46.2548828125
21.5386352,-25.9326171875,-95.4736328125,50.0634765625
21.5576729,-26.3720703125,-96.6943359375,46.6455078125
21.5964256,-26.1767578125,-97.4267578125,38.3935546875
21.6165133,-26.1767578125,-97.9150390625,26.4794921875
21.6552265,-26.7138671875,-97.6220703125,15.0537109375
21.6757047,-27.6904296875,-97.0361328125,6.5576171875
21.712618,-28.6669921875,-97.5732421875,4.2626953125
21.7395498,-29.1552734375,-97.5244140625,5.0439453125
21.7762429,-29.4970703125,-98.2568359375,5.9228515625
21.7983452,-30.5224609375,-98.5009765625,5.0439453125
21.8412218,-31.1083984375,-99.5263671875,2.9443359375
21.8586024,-32.0849609375,-99.2822265625,-0.6201171875
21.8971045,-32.4755859375,-99.5263671875,-4.8193359375
21.9191629,-30.0341796875,-100.7470703125,-9.7998046875
21.9601569,-27.1044921875,-101.0888671875,-14.3896484375
21.9770568,-24.6142578125,-101.9189453125,-19.3701171875
22.0196679,-23.9794921875,-100.4052734375,-23.7158203125
22.0366291,-24.8583984375,-98.7451171875,-16.5869140625
22.0798204,-25.4931640625,-97.4755859375,7.2412109375
22.1006119,-26.1279296875,-96.0595703125,33.4130859375
22.1374915,-27.3486328125,-96.6455078125,48.6962890625
22.1597632,-27.4951171875,-96.7919921875,51.2841796875
22.1975831,-27.4462890625,-96.9873046875,46.5966796875
22.2203498,-27.3486328125,-97.6708984375,37.2705078125
22.2532731,-27.2509765625,-98.4521484375,25.3076171875
22.2801788,-28.1298828125,-98.3056640625,13.8330078125
22.3136744,-28.3740234375,-97.8173828125,6.3134765625
22.3418947,-29.4970703125,-98.3056640625,5.1416015625
22.3711529,-29.4970703125,-98.3544921875,5.8251953125
22.4107984,-30.1806640625,-98.6474609375,6.3623046875
22.4299876,-31.5966796875,-98.9404296875,6.6552734375
22.4796645,-32.1337890625,-99.8193359375,5.4833984375
22.5050291,-32.0361328125,-99.7705078125,3.3349609375
22.5403129,-32.2802734375,-100.5517578125,-1.0107421875
22.5604208,-30.1806640625,-101.2353515625,-5.6982421875
22.5840599,-27.1044921875,-101.8212890625,-10.6787109375
22.6092609,-24.9072265625,-102.7490234375,-16.7333984375
22.6479215,-24.6630859375,-100.0634765625,-19.8583984375
22.6745838,-25.0048828125,-97.8173828125,-7.9443359375
22.7016792,-25.1025390625,-97.2314453125,19.1552734375
22.7352807,-26.2744140625,-96.5966796875,44.4482421875
22.7653385,-27.1044921875,-96.5966796875,56.5576171875
22.7983924,-27.2509765625,-96.9384765625,56.6064453125
22.8237419,-27.9345703125,-97.8173828125,49.9658203125
22.8558425,-27.2998046875,-98.5498046875,40.2490234375
22.8832356,-27.3974609375,-98.3056640625,27.0654296875
22.9147849,-28.1298828125,-98.3544921875,15.6396484375
22.9420679,-28.2763671875,-98.2080078125,9.0966796875
22.9757179,-29.3994140625,-98.5009765625,7.2412109375
23.0051292,-29.9853515625,-98.6962890625,8.0224609375
23.0353365,-31.1572265625,-99.7705078125,8.8037109375
23.0684276,-31.6455078125,-99.7705078125,7.7783203125
23.0940033,-32.1337890625,-100.3564453125,4.3115234375
23.1234385,-32.8173828125,-100.5517578125,0.6982421875
23.1569985,-32.8173828125,-101.2841796875,-3.6962890625
23.1874401,-29.9365234375,-102.2607421875,-8.8720703125
23.2187823,-26.2744140625,-101.8212890625,-14.6337890625
23.2469815,-24.0283203125,-102.8955078125,-19.9560546875
23.2794719,-24.7119140625,-100.6494140625,-22.9345703125
23.3095306,-24.7607421875,-99.1357421875,-9.5068359375
23.3371206,-25.1025390625,-97.9638671875,19.7900390625
23.3659401,-25.4931640625,-97.4755859375,46.3525390625
23.3985931,-26.5673828125,-97.9150390625,58.7060546875
23.4273955,-26.7626953125,-97.9638671875,59.0478515625
23.4541043,-27.4462890625,-97.9638671875,53.4326171875
23.5030163,-26.3720703125,-98.5986328125,43.3251953125
23.5597192,-27.3486328125,-99.1357421875,30.1904296875
23.5607985,-27.3974609375,-99.4287109375,19.5458984375
23.5947619,-28.1787109375,-98.7939453125,12.6123046875
23.6135316,-28.4716796875,-99.4775390625,9.8779296875
23.6522583,-29.4970703125,-98.6962890625,10.4638671875
23.6731236,-30.3271484375,-99.9169921875,10.8544921875
23.6950671,-31.2548828125,-100.3076171875,9.9267578125
23.7462119,-32.1337890625,-101.0888671875,7.0458984375
23.7661352,-32.5244140625,-101.0400390625,2.2607421875
23.8052057,-32.1826171875,-101.5771484375,-1.0107421875
23.8251553,-29.9365234375,-102.0654296875,-6.5283203125
23.863018,-26.2255859375,-103.0419921875,-12.0947265625
23.8829387,-23.9306640625,-103.2373046875,-17.3681640625
23.9220296,-23.7841796875,-101.9677734375,-22.0068359375
23.9442477,-23.8330078125,-100.1611328125,-12.8759765625
23.9821083,-24.2724609375,-98.2080078125,15.3955078125
24.0009806,-25.0537109375,-98.1103515625,43.2763671875
24.0391076,-25.7861328125,-97.7685546875,58.8525390625
24.059054,-26.4208984375,-98.2080078125,60.9521484375
24.1173317,-26.1279296875,-98.2568359375,55.7275390625
24.1470551,-26.4697265625,-99.3798828125,46.1572265625
24.1522941,-26.7138671875,-99.3310546875,34.4873046875
24.1951619,-26.9091796875,-99.5263671875,22.7197265625
24.2160156,-28.2275390625,-99.7216796875,15.1025390625
24.2550712,-28.4228515625,-99.7705078125,12.9052734375
24.2739957,-29.3505859375,-100.2099609375,13.6376953125
24.3171526,-29.8876953125,-100.6982421875,14.7607421875
24.3381964,-30.1318359375,-100.4052734375,13.7353515625
24.374228,-31.4013671875,-101.0888671875,12.0751953125
24.394402,-31.6943359375,-101.5283203125,8.1689453125
24.4344731,-32.7685546875,-102.3095703125,4.0185546875
24.4554671,-30.9619140625,-103.0419921875,-0.9130859375
24.4924807,-27.3974609375,-103.1396484375,-5.7470703125
24.5114261,-24.6630859375,-103.9697265625,-11.7041015625
24.5536529,-23.4423828125,-102.6513671875,-16.2939453125
24.5741368,-23.7353515625,-101.2841796875,-13.4619140625
24.610508,-24.3212890625,-99.2822265625,8.9501953125
24.6358962,-24.5654296875,-98.6962890625,37.6123046875
24.6725842,-25.6396484375,-98.8916015625,57.2412109375
24.6965931,-27.0068359375,-98.9404296875,63.3935546875
24.7356745,-26.4697265625,-99.3310546875,59.6337890625
24.7551478,-26.5673828125,-100.3564453125,51.2841796875
24.7946981,-26.5673828125,-100.5517578125,39.2236328125
24.8125827,-26.5185546875,-100.9423828125,26.6259765625
24.8508128,-27.2998046875,-100.3076171875,17.9345703125
24.8754511,-28.5693359375,-101.2841796875,15.2001953125
24.9120634,-28.8623046875,-101.3330078125,16.4697265625
24.9320495,-29.5947265625,-101.2353515625,17.8857421875
24.9762361,-30.0830078125,-101.7236328125,17.6416015625
24.99658,-31.2060546875,-101.9189453125,15.5908203125
25.0311843,-31.4990234375,-102.8466796875,12.3681640625
25.0563517,-32.5732421875,-103.6767578125,8.0712890625
25.0932873,-31.7919921875,-103.3349609375,4.1162109375
25.1173319,-29.2041015625,-104.4580078125,-1.3525390625
25.1553033,-25.7861328125,-104.4091796875,-5.4541015625
25.1744838,-24.2724609375,-103.3349609375,-10.3857421875
25.2123422,-24.3701171875,-101.0400390625,-1.8408203125
25.2362532,-24.3701171875,-99.9169921875,22.4267578125
25.2733022,-25.0048828125,-98.7939453125,48.6474609375
25.2972294,-26.2255859375,-99.6728515625,63.3935546875
25.3396557,-27.2998046875,-99.9658203125,65.8837890625
25.369816,-27.6416015625,-100.7470703125,60.0244140625
25.3878136,-27.3486328125,-101.3818359375,49.9658203125
25.4175121,-27.3486328125,-101.7236328125,37.0263671875
25.464858,-27.4462890625,-101.5771484375,25.5517578125
25.4838005,-28.0810546875,-101.7236328125,19.3994140625
25.5412241,-29.0576171875,-101.5283203125,18.8623046875
25.5454712,-29.4482421875,-101.6748046875,20.1806640625
25.5715582,-29.8388671875,-101.9189453125,21.4013671875
25.6119505,-30.5712890625,-102.6513671875,19.7900390625
25.6330913,-30.7177734375,-103.0908203125,17.0068359375
25.6724204,-31.7919921875,-103.0419921875,13.8818359375
25.6944714,-32.1337890625,-103.8720703125,9.8779296875
25.7501253,-31.5478515625,-104.2138671875,4.9951171875
25.7535914,-28.9111328125,-104.7509765625,-0.3271484375
25.7824865,-25.5908203125,-104.1162109375,-5.3564453125
25.8271105,-24.5654296875,-102.3583984375,-4.0869140625
25.8476557,-24.2724609375,-100.3564453125,15.4443359375
25.8726222,-25.2001953125,-99.6728515625,44.3505859375
25.9050904,-26.0302734375,-99.2333984375,65.0537109375
25.9459664,-26.8603515625,-99.8193359375,72.2802734375
25.9646911,-28.0322265625,-100.2099609375,70.4736328125
26.0141108,-27.4462890625,-100.6982421875,62.2705078125
26.0348234,-27.9833984375,-101.7236328125,51.4794921875
26.0503915,-27.7392578125,-101.2353515625,38.6376953125
26.0888772,-28.0810546875,-101.1376953125,29.8486328125
26.1133585,-28.5205078125,-101.1865234375,25.8447265625
26.166797,-29.4970703125,-100.9912109375,25.9912109375
26.1882609,-29.3994140625,-101.9677734375,27.1630859375
26.2031036,-30.4736328125,-102.1630859375,26.6259765625
26.2439081,-30.9130859375,-102.8466796875,24.6728515625
26.262824,-31.4990234375,-102.7978515625,21.0595703125
26.3027431,-32.5244140625,-103.1396484375,16.5673828125
26.3218812,-32.6708984375,-103.0908203125,11.3916015625
26.3724072,-30.7177734375,-103.0908203125,6.2646484375
26.3913197,-27.2021484375,-103.6279296875,1.0888671875
26.4108204,-24.6630859375,-101.7724609375,-1.0107421875
26.446181,-24.2724609375,-100.3564453125,15.2978515625
26.4848217,-24.3212890625,-99.2333984375,42.9833984375
26.5061042,-24.6142578125,-98.7939453125,66.5673828125
26.55659,-25.2978515625,-99.3310546875,76.7724609375
26.5724517,-26.6650390625,-99.4287109375,75.5029296875
26.5937643,-27.0556640625,-99.3798828125,69.1552734375
26.6352207,-26.8115234375,-100.1123046875,58.6572265625
26.6542809,-26.8603515625,-100.1123046875,45.7177734375
26.6945217,-27.0068359375,-101.0888671875,35.5615234375
26.71634,-26.8603515625,-100.6982421875,29.3115234375
26.7743358,-27.8857421875,-100.3564453125,28.3837890625
26.806431,-28.5205078125,-99.9169921875,29.3603515625
26.8104045,-29.2041015625,-100.7470703125,29.4580078125
26.8519888,-29.8876953125,-100.8935546875,27.9443359375
26.8669434,-30.6201171875,-101.5283203125,24.8681640625
26.9136428,-31.4990234375,-102.0654296875,20.2294921875
26.9347104,-31.5478515625,-102.7978515625,15.5908203125
26.9579818,-30.1806640625,-103.2373046875,10.3662109375
26.9972415,-27.4951171875,-103.5302734375,4.3115234375
27.0185588,-24.1748046875,-102.6513671875,-1.0107421875
27.0708708,-23.2958984375,-100.2099609375,2.1142578125
27.074778,-23.3935546875,-99.1845703125,24.8681640625
27.1170354,-23.5400390625,-98.4033203125,54.7509765625
27.1371604,-23.9794921875,-98.6962890625,73.9404296875
27.1955163,-25.3466796875,-98.5986328125,79.7509765625
27.1989837,-25.1513671875,-99.0869140625,75.7958984375
27.238442,-25.5419921875,-98.6962890625,68.0322265625
27.2576452,-25.2978515625,-99.3798828125,55.8740234375
27.2975033,-25.1513671875,-99.3798828125,43.9111328125
27.3233535,-25.5908203125,-99.1845703125,34.9267578125
27.3501086,-26.2744140625,-98.7939453125,30.6787109375
27.3793102,-26.8603515625,-99.1357421875,30.9228515625
27.4201587,-27.3486328125,-100.0146484375,31.8994140625
27.4412633,-29.0087890625,-100.4541015625,31.6064453125
27.4700478,-28.6669921875,-100.1123046875,29.3603515625
27.500021,-29.7900390625,-100.8935546875,25.7958984375
27.5372123,-30.5712890625,-101.1376953125,21.8896484375
27.5600203,-30.9130859375,-101.5771484375,16.3232421875
27.6003129,-29.2041015625,-102.6513671875,10.7568359375
27.6199014,-25.3466796875,-102.5537109375,4.6533203125
27.6580357,-23.4423828125,-100.8935546875,0.8935546875
27.6818817,-23.0517578125,-99.2333984375,11.4892578125
27.7199665,-22.5634765625,-97.7197265625,38.8818359375
27.738898,-22.8564453125,-97.2314453125,65.0537109375
27.7790073,-23.5400390625,-97.9150390625,78.8232421875
27.8010161,-24.4189453125,-97.8173828125,81.1181640625
27.8342022,-25.0048828125,-98.5986328125,75.1611328125
27.8630435,-24.7607421875,-99.1845703125,64.9072265625
27.8909037,-25.0537109375,-98.8427734375,51.9677734375
27.9244786,-25.1025390625,-98.8427734375,40.1025390625
27.9520205,-25.4443359375,-98.2568359375,33.8037109375
27.9891034,-25.8349609375,-98.5009765625,33.2666015625
28.0311184,-26.5185546875,-98.8427734375,34.6337890625
28.0497912,-27.8369140625,-99.2333984375,35.9033203125
28.0696005,-27.7880859375,-100.1123046875,35.9521484375
28.1222351,-28.5205078125,-99.8681640625,33.7548828125
28.141194,-29.2529296875,-100.3076171875,29.4091796875
28.1643686,-30.2783203125,-100.4541015625,25.1611328125
28.2124105,-29.7412109375,-101.6748046875,20.4248046875
28.2312636,-27.4462890625,-102.0166015625,14.5166015625
28.2703795,-24.2236328125,-101.1376953125,8.6572265625
28.2902893,-22.7099609375,-99.6728515625,10.7080078125
28.3124554,-21.8798828125,-98.0615234375,31.1181640625
28.34552,-22.2216796875,-97.6220703125,57.8759765625
28.3723486,-22.2705078125,-97.6708984375,77.6513671875
28.4234424,-23.5400390625,-97.6220703125,83.0712890625
28.4444969,-24.3701171875,-98.5009765625,78.6279296875
28.4836406,-24.6142578125,-98.4033203125,68.8134765625
28.5016114,-24.4677734375,-99.3798828125,55.2392578125
28.542539,-24.5166015625,-99.1845703125,41.5185546875
28.5625491,-24.8583984375,-99.2822265625,32.4853515625
28.5846959,-25.5419921875,-99.0869140625,29.5556640625
28.6164856,-26.0302734375,-99.1845703125,30.5322265625
28.6614959,-26.1767578125,-99.4775390625,30.4833984375
28.6802848,-27.3486328125,-99.7705078125,30.2880859375
28.7214077,-27.8857421875,-99.8193359375,27.1630859375
28.7432356,-28.9111328125,-100.5517578125,23.4521484375
28.7834659,-29.4482421875,-100.6982421875,19.0087890625
28.804295,-29.8876953125,-101.4794921875,14.1259765625
28.8424041,-29.0576171875,-101.9677734375,8.8037109375
28.8614964,-26.0791015625,-102.2119140625,3.0908203125
28.8854558,-23.6865234375,-100.0146484375,0.1611328125
28.9173515,-22.4658203125,-98.5498046875,14.9072265625
28.9455429,-22.3681640625,-97.4755859375,42.2021484375
28.9743822,-23.2470703125,-96.6455078125,67.2509765625
29.0264064,-23.5888671875,-97.3779296875,77.9931640625
29.0463631,-24.5654296875,-98.0126953125,76.6259765625
29.0826259,-25.0537109375,-98.0126953125,69.4482421875
29.1018659,-25.0537109375,-98.5986328125,58.1201171875
29.1377055,-25.0537109375,-98.7939453125,45.1318359375
29.1596894,-25.1025390625,-98.7939453125,33.9990234375
29.2039143,-25.3466796875,-98.6962890625,29.3115234375
29.2247702,-25.5908203125,-98.6962890625,29.2626953125
29.2617766,-26.3232421875,-99.1357421875,30.0439453125
29.282083,-27.6416015625,-98.9892578125,30.5322265625
29.321892,-27.5927734375,-99.7216796875,28.4814453125
29.352849,-28.3251953125,-99.9658203125,24.7705078125
29.369794,-29.2041015625,-100.8447265625,20.7177734375
29.4139167,-29.8876953125,-101.0888671875,15.2978515625
29.4327916,-29.8876953125,-101.7236328125,9.9267578125
29.4719763,-27.6416015625,-101.5771484375,3.4326171875
29.491827,-24.0771484375,-99.9658203125,1.1865234375
29.5288695,-22.4658203125,-97.5244140625,14.8583984375
29.5489052,-22.0263671875,-96.6943359375,42.7880859375
29.5892115,-21.9775390625,-95.5712890625,69.1064453125
29.6092432,-22.5146484375,-96.2060546875,80.8251953125
29.6543182,-23.4912109375,-96.5966796875,81.0205078125
29.6749107,-24.3701171875,-96.8896484375,74.4287109375
29.7123615,-24.5166015625,-97.5732421875,63.6376953125
29.7335002,-24.6142578125,-97.5732421875,50.3564453125
29.7705304,-24.4677734375,-96.9873046875,39.1748046875
29.7907402,-24.3212890625,-97.0361328125,32.4853515625
29.8349112,-25.3466796875,-96.5966796875,31.2158203125
29.8528108,-26.0791015625,-97.5732421875,31.9482421875
29.8909321,-26.7138671875,-97.6708984375,33.3642578125
29.9138636,-27.2021484375,-98.0615234375,31.3623046875
29.9519237,-28.0810546875,-98.9892578125,28.6279296875
29.9861326,-28.6669921875,-98.8427734375,24.1357421875
30.0014353,-29.0576171875,-99.7216796875,19.6435546875
30.0300339,-29.6923828125,-100.1611328125,13.6376953125
30.0752503,-27.4462890625,-100.6005859375,7.9736328125
30.0942696,-24.4189453125,-99.4775390625,2.2607421875
30.1312838,-22.1728515625,-96.9873046875,6.6064453125
30.154315,-20.8056640625,-95.3759765625,30.8251953125
30.1894948,-21.1962890625,-94.9365234375,61.7333984375
30.2163556,-21.0498046875,-94.0087890625,80.7275390625
30.2544524,-21.5869140625,-94.5947265625,86.1962890625
30.2734515,-22.8076171875,-94.2041015625,82.5341796875
30.3157091,-23.3935546875,-94.9853515625,73.9892578125
30.3367069,-23.6376953125,-94.4482421875,61.4892578125
30.3730315,-23.4912109375,-94.7900390625,48.9404296875
30.3950664,-23.0517578125,-94.5947265625,39.6142578125
30.4352231,-23.5400390625,-94.9365234375,35.6591796875
30.4550588,-24.3701171875,-95.0341796875,36.0986328125
30.4931501,-24.7119140625,-94.7412109375,36.7822265625
30.5129753,-25.5419921875,-95.6689453125,36.6845703125
30.555077,-26.7138671875,-95.9130859375,34.2919921875
30.5772058,-27.4951171875,-96.4990234375,30.7763671875
30.6143631,-28.2275390625,-96.6943359375,26.3330078125
30.6344443,-29.0087890625,-97.2314453125,20.4248046875
30.6773881,-28.3251953125,-97.5244140625,14.5166015625
30.697224,-25.5419921875,-97.3779296875,8.3642578125
30.7344844,-22.2705078125,-95.5224609375,4.6533203125
30.7566188,-20.1220703125,-94.1064453125,16.1279296875
30.7958299,-19.7314453125,-92.5927734375,45.6689453125
30.8168858,-20.2197265625,-92.0556640625,72.3291015625
30.8580818,-20.2685546875,-92.2021484375,87.4169921875
30.8780813,-21.3427734375,-91.9091796875,89.2724609375
30.9179739,-22.1240234375,-92.2021484375,83.1689453125
30.9379185,-22.0263671875,-92.7392578125,73.7939453125
30.9760384,-22.3681640625,-93.2763671875,60.4638671875
30.9960272,-21.7822265625,-93.0322265625,48.6962890625
31.0461174,-22.6123046875,-92.6416015625,41.1767578125
31.0661374,-22.7587890625,-93.2763671875,38.4423828125
31.1031321,-23.3935546875,-92.9833984375,39.1748046875
31.1248283,-24.5166015625,-93.5205078125,40.2001953125
31.1612065,-24.9560546875,-93.6669921875,39.3701171875
31.1815147,-26.2255859375,-93.5205078125,36.1962890625
31.2368693,-26.5673828125,-94.7900390625,32.3876953125
31.2568041,-27.3974609375,-94.6435546875,27.6025390625
31.2687136,-28.4228515625,-95.6689453125,21.8896484375
31.3112963,-27.1044921875,-96.2060546875,15.7861328125
31.3312372,-24.2724609375,-95.0830078125,10.1708984375
31.3674257,-21.0986328125,-93.2763671875,8.9501953125
31.3905031,-20.1708984375,-90.9814453125,27.7001953125
31.4329582,-19.7802734375,-90.4931640625,56.9970703125
31.4528224,-20.3662109375,-90.7373046875,79.7509765625
31.4937044,-20.2197265625,-90.1513671875,88.6376953125
31.5148875,-21.0986328125,-90.3466796875,86.1962890625
31.5656048,-22.0751953125,-91.6162109375,78.5302734375
31.5862145,-21.9775390625,-92.0068359375,66.5673828125
31.5995752,-21.7333984375,-91.8115234375,52.4072265625
31.6594186,-22.0751953125,-91.2744140625,41.5185546875
31.6797419,-22.3193359375,-91.8115234375,38.0029296875
31.6884441,-23.1005859375,-91.7138671875,37.6123046875
31.7366352,-23.5888671875,-92.3486328125,39.0771484375
31.7570495,-24.8583984375,-92.2998046875,38.9306640625
31.7966952,-25.5908203125,-93.0322265625,36.6357421875
31.815751,-25.9326171875,-93.3251953125,33.6083984375
31.8529659,-26.9091796875,-94.1552734375,28.2373046875
31.873096,-27.5439453125,-94.3017578125,23.9404296875
31.9141002,-28.2275390625,-94.7900390625,18.5205078125
31.9339745,-26.5673828125,-94.8388671875,12.7099609375
31.9761327,-23.2470703125,-94.6923828125,7.5341796875
31.9968251,-20.8056640625,-92.7880859375,11.8310546875
32.03612,-20.0732421875,-90.9814453125,33.5595703125
32.0550187,-19.9755859375,-89.6142578125,63.2470703125
32.092199,-20.3173828125,-90.1025390625,82.8759765625
32.1164422,-21.3427734375,-89.9560546875,87.8564453125
32.1587395,-22.1240234375,-90.2490234375,83.7548828125
32.1901121,-23.0517578125,-90.7373046875,74.9169921875
32.2078405,-23.0029296875,-91.5185546875,61.2451171875
32.2527885,-22.7099609375,-90.9814453125,47.8173828125
32.2641453,-22.8076171875,-91.3720703125,39.4189453125
32.3077974,-22.8564453125,-91.2744140625,37.6123046875
32.3258947,-23.9794921875,-91.4208984375,37.6123046875
32.3686912,-24.4677734375,-91.5673828125,38.9306640625
32.3879446,-25.4443359375,-91.9091796875,38.4423828125
32.4153354,-25.8349609375,-91.9091796875,35.9521484375
32.4609603,-26.4208984375,-92.9833984375,31.6552734375
32.4771603,-27.9833984375,-93.8134765625,27.1142578125
32.5360644,-28.2275390625,-93.6669921875,21.4013671875
32.5395148,-28.4228515625,-93.3740234375,15.7861328125
32.5676032,-26.6162109375,-94.0576171875,9.6337890625
32.6147845,-23.2470703125,-93.0810546875,5.0439453125
32.6292751,-21.1962890625,-91.0791015625,11.8310546875
32.6588184,-20.1708984375,-89.4677734375,38.1494140625
32.7068499,-20.1708984375,-88.7841796875,68.3251953125
32.7234009,-20.1220703125,-89.0771484375,85.9521484375
32.7478847,-21.5869140625,-89.4677734375,90.0048828125
32.773703,-22.3193359375,-89.4189453125,84.5361328125
32.8187001,-22.5146484375,-90.7861328125,75.6982421875
32.8369771,-23.1982421875,-90.4931640625,63.0029296875
32.8725592,-22.5634765625,-90.2490234375,50.1123046875
32.9051386,-23.0029296875,-90.4443359375,40.7861328125
32.9291043,-22.7587890625,-90.6396484375,37.5634765625
32.9616096,-23.8330078125,-90.7373046875,38.0029296875
32.9901559,-24.2236328125,-91.1279296875,38.2958984375
33.0233593,-25.3466796875,-91.6162109375,38.1494140625
33.0515507,-26.0791015625,-92.3486328125,35.6591796875
33.081789,-27.0556640625,-92.6416015625,32.1923828125
33.1070477,-27.9345703125,-93.5205078125,26.7236328125
33.1415598,-28.1787109375,-94.2041015625,21.2548828125
33.1706608,-29.4482421875,-93.7158203125,15.0048828125
33.20184,-26.6162109375,-94.6923828125,8.8037109375
33.2314606,-23.1494140625,-93.1298828125,3.7744140625
33.2594682,-21.0498046875,-91.3720703125,5.5322265625
33.2927069,-19.9267578125,-89.8583984375,29.6044921875
33.32063,-20.4150390625,-89.5166015625,60.9521484375
33.3552756,-20.5126953125,-89.6630859375,82.8759765625
33.3835014,-21.2939453125,-89.9072265625,89.3701171875
33.4117683,-22.3193359375,-89.7607421875,86.9287109375
33.4446134,-22.5146484375,-89.9560546875,77.6025390625
33.4737851,-22.5146484375,-90.3955078125,65.3955078125
33.4996582,-22.6123046875,-91.3232421875,52.8955078125
33.5496292,-22.4658203125,-90.4443359375,42.2021484375
33.5705811,-23.4912109375,-90.8837890625,37.0751953125
33.6067587,-24.0283203125,-91.4697265625,36.6845703125
33.6256242,-24.6142578125,-91.6162109375,37.3681640625
33.6517648,-25.5419921875,-92.0068359375,36.8798828125
33.6810292,-25.7861328125,-92.2998046875,35.3173828125
33.7158653,-26.6650390625,-92.2998046875,31.0693359375
33.7430291,-27.8857421875,-92.6416015625,26.0888671875
33.7920275,-28.8623046875,-93.2275390625,20.9619140625
33.8098774,-29.5947265625,-93.6181640625,15.2490234375
33.8489684,-28.4716796875,-94.2529296875,8.6572265625
33.8689104,-24.8583984375,-94.5458984375,2.9443359375
33.8949618,-22.1240234375,-93.0810546875,-0.4248046875
33.9249483,-20.2685546875,-90.9326171875,13.0517578125
33.971163,-20.5126953125,-90.2490234375,43.9599609375
33.9911571,-20.8056640625,-90.2490234375,71.8896484375
34.0300568,-20.6591796875,-90.4931640625,85.5615234375
34.0501283,-21.2939453125,-90.2001953125,86.2451171875
34.0871507,-23.0517578125,-91.2744140625,79.6533203125
34.1071083,-23.1982421875,-91.8115234375,68.5205078125
34.149747,-23.0029296875,-92.2509765625,55.6298828125
34.1695413,-22.8564453125,-91.6650390625,43.5205078125
34.2147634,-23.3447265625,-91.8115234375,36.1962890625
34.2347104,-23.8330078125,-92.3974609375,34.7802734375
34.2726661,-24.5654296875,-92.2998046875,34.8291015625
34.2865789,-25.1025390625,-93.4228515625,35.2685546875
34.3309181,-26.2744140625,-93.4716796875,34.2919921875
34.3608452,-27.5439453125,-93.5205078125,30.4833984375
34.3798106,-27.6904296875,-93.7646484375,26.3818359375
34.4058032,-29.0576171875,-94.3017578125,21.4990234375
34.4498,-29.6435546875,-95.1806640625,15.8837890625
34.4696559,-29.8388671875,-95.4248046875,10.1220703125
34.5098341,-27.7392578125,-95.8154296875,4.0185546875
34.5288608,-24.0283203125,-95.3271484375,-1.1572265625
34.5729421,-21.4404296875,-93.0322265625,1.9677734375
34.5944524,-20.9521484375,-91.7626953125,25.4541015625
34.6300284,-20.8544921875,-91.1767578125,55.3369140625
34.6511364,-21.3916015625,-91.5673828125,75.2099609375
34.6892066,-21.7333984375,-92.1044921875,79.8974609375
34.7071358,-22.8076171875,-91.8115234375,75.7470703125
34.7523751,-23.5888671875,-93.5205078125,67.8369140625
34.7714015,-23.4912109375,-93.1298828125,54.5068359375
34.8233185,-23.4423828125,-93.6181640625,41.1767578125
34.8443832,-23.2958984375,-93.1787109375,32.1923828125
34.8591408,-24.4189453125,-93.4228515625,28.5791015625
34.9032417,-24.5166015625,-93.9599609375,29.1162109375
34.9242316,-25.4443359375,-94.5947265625,29.8486328125
34.9612449,-26.2744140625,-94.3994140625,28.3837890625
34.9822034,-26.6650390625,-95.0341796875,26.1376953125
35.0202391,-27.5927734375,-95.7177734375,20.9130859375
35.041212,-28.5693359375,-95.8642578125,15.4931640625
35.0963451,-29.7900390625,-96.1083984375,9.3408203125
35.1276922,-30.1318359375,-96.9873046875,3.5791015625
35.1315666,-29.8876953125,-97.4755859375,-2.4755859375
35.1727202,-26.7626953125,-96.8896484375,-7.9443359375
35.1945828,-23.3447265625,-94.8388671875,-6.9189453125
35.2328939,-21.5869140625,-93.9111328125,13.2958984375
35.2528586,-21.1474609375,-93.2275390625,41.4697265625
35.2949231,-22.0751953125,-93.1787109375,61.8310546875
35.3169478,-22.8564453125,-93.6181640625,68.4228515625
35.3540175,-22.8076171875,-93.6669921875,64.9072265625
35.3756439,-24.3701171875,-94.3994140625,56.3134765625
35.4137196,-24.9560546875,-94.7900390625,43.9599609375
35.4335451,-24.5654296875,-94.9365234375,30.4345703125
35.47701,-24.6630859375,-94.8876953125,21.2060546875
35.4968435,-24.7607421875,-94.9853515625,17.2998046875
35.5370676,-25.2001953125,-94.8388671875,17.6416015625
35.5568519,-26.5185546875,-95.2294921875,18.1298828125
35.5959546,-26.9091796875,-95.8154296875,16.9580078125
35.6160691,-27.7880859375,-96.4990234375,13.8818359375
35.6570964,-28.7158203125,-96.5966796875,10.2685546875
35.6780049,-29.6923828125,-97.5244140625,5.2880859375
35.716188,-30.1806640625,-97.9150390625,-0.3759765625
35.7362938,-30.4736328125,-98.1103515625,-6.5771484375
35.7784005,-30.9619140625,-98.8916015625,-12.8271484375
35.7994283,-28.6669921875,-97.1337890625,-17.7099609375
35.8364756,-23.9306640625,-96.0107421875,-14.1943359375
35.8573559,-22.6123046875,-94.4482421875,9.3896484375
35.8845652,-22.5634765625,-93.5205078125,37.1728515625
35.9324293,-22.5146484375,-93.7646484375,56.2158203125
35.9453845,-23.0029296875,-94.5458984375,60.8544921875
35.9917316,-23.4423828125,-94.5458984375,56.6552734375
36.0236344,-25.4931640625,-95.3759765625,47.2314453125
36.0346267,-25.4443359375,-95.0830078125,34.7802734375
36.0768543,-24.6630859375,-95.0830078125,21.7431640625
36.0967626,-25.1513671875,-95.0341796875,12.0751953125
36.1418598,-25.1513671875,-95.0830078125,7.7783203125
36.1608566,-25.9326171875,-95.3271484375,7.7783203125
36.1960646,-26.5673828125,-95.6689453125,8.1201171875
36.2161669,-27.3974609375,-95.8154296875,7.4853515625
36.2602962,-28.0810546875,-96.5478515625,4.4580078125
36.2813065,-29.1064453125,-96.6943359375,0.7958984375
36.3195685,-29.6923828125,-97.7197265625,-4.3310546875
36.3403058,-30.7177734375,-98.1103515625,-10.1904296875
36.3772768,-31.0595703125,-98.6474609375,-16.0986328125
36.3972079,-30.6201171875,-98.6474609375,-22.1533203125
36.441376,-27.8857421875,-98.8916015625,-27.3291015625
36.4604015,-24.3701171875,-96.3525390625,-27.8662109375
36.500475,-22.9541015625,-94.6435546875,-8.8720703125
36.5194218,-23.0517578125,-94.4482421875,20.5712890625
36.5614321,-22.6123046875,-93.7646484375,43.8623046875
36.5814625,-23.4423828125,-93.6669921875,52.9931640625
36.6225727,-24.1259765625,-93.8134765625,51.6748046875
36.6446685,-24.7607421875,-94.0576171875,45.7666015625
36.6817281,-25.2490234375,-95.1318359375,35.7080078125
36.701897,-25.6396484375,-95.1318359375,23.8916015625
36.7440528,-25.2001953125,-95.1318359375,13.4912109375
36.7628835,-25.4931640625,-95.5712890625,7.7294921875
36.8153733,-26.2744140625,-95.3271484375,5.8740234375
36.8354281,-27.0556640625,-95.4736328125,5.9716796875
36.8533797,-27.2021484375,-95.9130859375,5.8251953125
36.8963792,-28.6669921875,-96.0107421875,4.4091796875
36.9111885,-29.2041015625,-96.9873046875,1.1865234375
36.9543547,-29.9853515625,-97.1337890625,-2.9150390625
36.9702196,-31.0595703125,-97.8173828125,-7.8466796875
37.0142963,-31.8408203125,-98.4033203125,-12.5341796875
37.034291,-31.8408203125,-99.0869140625,-18.4423828125
37.0723776,-29.8388671875,-99.2822265625,-23.1787109375
37.0922335,-26.1279296875,-96.8408203125,-27.9638671875
37.1363435,-22.9541015625,-94.7900390625,-20.3955078125
37.1554543,-22.3681640625,-94.1064453125,3.9208984375
37.1965305,-22.7099609375,-92.9345703125,30.8740234375
37.2113712,-22.2705078125,-93.1787109375,47.7197265625
37.2453727,-23.2958984375,-93.3251953125,51.8212890625
37.2865149,-24.1748046875,-94.2041015625,48.7939453125
37.3024551,-24.7607421875,-95.1318359375,40.4931640625
37.3353756,-24.9072265625,-94.6435546875,29.6044921875
37.3774342,-25.0048828125,-94.6923828125,17.7880859375
37.3903233,-24.8583984375,-95.1806640625,9.2919921875
37.4272977,-25.6884765625,-95.1318359375,4.8974609375
37.4837579,-26.2255859375,-95.5224609375,4.3603515625
37.4872754,-26.4697265625,-95.5712890625,4.5068359375
37.5154844,-27.6416015625,-95.8642578125,3.7255859375
37.544068,-28.4716796875,-96.2060546875,0.2099609375
37.5763707,-29.9365234375,-97.2314453125,-3.1103515625
37.6061843,-30.6689453125,-97.2802734375,-7.2607421875
37.6323905,-31.3037109375,-97.6220703125,-12.2900390625
37.6670446,-31.5966796875,-98.5498046875,-17.8076171875
37.6962836,-31.7919921875,-99.0380859375,-22.9345703125
37.7297432,-29.0576171875,-97.8173828125,-29.0380859375
37.7565181,-25.4443359375,-95.2783203125,-27.7197265625
37.7846571,-23.1982421875,-94.2041015625,-9.4091796875
37.8157101,-22.3681640625,-94.0576171875,17.3974609375
37.8433871,-23.0029296875,-94.0576171875,36.7333984375
37.8775825,-23.3935546875,-94.6923828125,43.5693359375
37.9053303,-24.2724609375,-94.1064453125,41.9091796875
37.9383736,-25.2001953125,-95.2783203125,33.9013671875
37.9802015,-25.7373046875,-95.5224609375,22.8662109375
37.9967987,-25.7861328125,-95.5712890625,11.5380859375
38.02491,-25.6396484375,-95.2294921875,2.5048828125
38.0564215,-26.0302734375,-95.5224609375,-2.0361328125
38.0901271,-26.4208984375,-96.0595703125,-1.8896484375
38.1173377,-27.0556640625,-95.9619140625,-1.0107421875
38.15075,-27.6416015625,-97.0361328125,-1.4990234375
38.1789737,-28.2275390625,-97.1337890625,-3.5009765625
38.2090133,-29.3505859375,-97.5732421875,-6.6748046875
38.2394657,-29.5947265625,-98.3544921875,-11.0693359375
38.269447,-31.1572265625,-98.0615234375,-15.5615234375
38.3017896,-31.7431640625,-99.6240234375,-20.2490234375
38.3311196,-32.5732421875,-99.4775390625,-24.5947265625
38.3600552,-30.8154296875,-98.5498046875,-29.1845703125
38.3890442,-27.4951171875,-96.4013671875,-26.1572265625
38.4220084,-24.8095703125,-95.0341796875,-6.5283203125
38.4502766,-23.8330078125,-94.5458984375,20.1318359375
38.481747,-23.4912109375,-95.1806640625,38.3447265625
38.5102487,-24.7607421875,-94.9853515625,42.9345703125
38.5388875,-24.9072265625,-95.8154296875,41.0791015625
38.5711313,-26.1767578125,-97.0849609375,32.2900390625
38.6005813,-27.2998046875,-96.7919921875,20.7177734375
38.6295634,-27.0556640625,-96.6455078125,8.9990234375
38.6618754,-26.1767578125,-96.4013671875,1.5283203125
38.691964,-26.5185546875,-96.6943359375,-2.2314453125
38.7226174,-27.2509765625,-97.1826171875,-2.1337890625
38.7764871,-27.7392578125,-97.6220703125,-0.9130859375
38.7983837,-29.1064453125,-96.8408203125,-1.9384765625
38.811342,-28.8134765625,-98.1103515625,-3.9404296875
38.8390022,-30.0830078125,-98.3544921875,-7.3095703125
38.8879069,-30.6689453125,-98.5986328125,-10.9716796875
38.9021304,-31.4501953125,-99.5751953125,-16.0498046875
38.9322746,-32.4755859375,-100.3076171875,-20.3466796875
38.9621911,-32.6708984375,-100.0634765625,-25.2294921875
38.9936578,-30.8642578125,-98.1591796875,-26.8896484375
39.0197278,-27.8857421875,-96.3525390625,-13.1201171875
39.0544269,-25.2978515625,-95.0341796875,12.3193359375
39.107203,-24.4677734375,-95.3759765625,34.5849609375
39.1271599,-24.7607421875,-95.4736328125,44.5458984375
39.1442163,-25.2001953125,-95.9130859375,44.0087890625
39.175166,-25.8349609375,-95.6201171875,37.2216796875
39.2016554,-26.8115234375,-97.5244140625,27.4072265625
39.2356926,-27.7880859375,-96.9873046875,15.3955078125
39.2657534,-27.6904296875,-97.2314453125,5.2880859375
39.2938245,-27.2998046875,-96.9384765625,-0.1806640625
39.3236692,-27.0556640625,-96.7431640625,-1.2060546875
39.3579367,-28.0322265625,-97.8662109375,-0.2783203125
39.4156012,-28.4716796875,-97.9638671875,-0.6201171875
39.4190024,-29.1552734375,-97.9150390625,-2.1826171875
39.4440369,-29.3994140625,-98.4033203125,-5.2099609375
39.4771561,-30.8642578125,-99.0869140625,-9.2626953125
39.5053755,-30.7666015625,-99.5263671875,-14.5361328125
39.5384465,-32.1337890625,-100.1123046875,-19.3212890625
39.5839599,-32.5244140625,-100.5517578125,-24.4970703125
39.6060618,-32.0361328125,-98.4033203125,-29.3798828125
39.6246673,-29.2529296875,-97.2314453125,-22.4951171875
39.6571408,-26.3232421875,-95.5224609375,0.3564453125
39.6875626,-24.1748046875,-96.3037109375,26.7724609375
39.7416608,-23.5888671875,-95.4736328125,42.4462890625
39.771584,-24.3212890625,-96.1083984375,46.1083984375
39.7755475,-24.8095703125,-96.2548828125,41.7138671875
39.821251,-26.1279296875,-97.0849609375,33.1689453125
39.8427006,-26.8603515625,-97.4267578125,21.0107421875
39.8962177,-27.4951171875,-97.8173828125,9.8779296875
39.8999503,-26.5185546875,-97.3779296875,1.6259765625
39.9575181,-26.6162109375,-97.4267578125,-1.7431640625
39.9608982,-27.1044921875,-97.6220703125,-1.9384765625
39.9885978,-27.5927734375,-98.0615234375,-1.5966796875
40.0189633,-28.2763671875,-98.3544921875,-3.1591796875
40.0519485,-29.3505859375,-99.5751953125,-4.7705078125
40.0977122,-29.9365234375,-99.1845703125,-8.6279296875
40.1189134,-30.4248046875,-100.2587890625,-13.1201171875
40.1422234,-31.2548828125,-100.5517578125,-17.8564453125
40.1764969,-31.8408203125,-101.3818359375,-23.1298828125
40.1973683,-32.2802734375,-100.6494140625,-28.4521484375
40.2277904,-31.2548828125,-98.8427734375,-30.9423828125
40.2568365,-28.1298828125,-97.6220703125,-19.8095703125
40.2912894,-24.8095703125,-97.2802734375,6.7529296875
40.32059,-23.7353515625,-96.4990234375,31.6064453125
40.3476937,-23.7353515625,-97.0361328125,43.7646484375
40.4107183,-23.8818359375,-96.3037109375,44.9853515625
40.4141085,-23.9794921875,-97.1826171875,39.2236328125
40.4377566,-25.3466796875,-97.4755859375,29.5556640625
40.471216,-25.9814453125,-98.0126953125,17.9345703125
40.5026321,-25.9326171875,-97.7685546875,6.9970703125
40.5334577,-26.4208984375,-97.8662109375,-0.4736328125
40.5616498,-26.1279296875,-98.1103515625,-2.8662109375
40.5901795,-26.4208984375,-98.1103515625,-2.6708984375
40.6232293,-26.5673828125,-99.0380859375,-1.7431640625
40.6513658,-27.7392578125,-99.2822265625,-2.1337890625
40.6793794,-28.1298828125,-99.4287109375,-5.3564453125
40.7147906,-29.1064453125,-99.6728515625,-9.0673828125
40.7441725,-29.7900390625,-100.2587890625,-13.8037109375
40.7714703,-30.4736328125,-101.4794921875,-18.0517578125
40.8026996,-31.7431640625,-101.7236328125,-23.0810546875
40.8505858,-31.9384765625,-102.0166015625,-28.0126953125
40.8727057,-29.6923828125,-100.4541015625,-31.7236328125
40.8915979,-26.3232421875,-98.1591796875,-24.7412109375
40.9229178,-23.6865234375,-97.6708984375,-2.0849609375
40.9681362,-23.0517578125,-97.0361328125,25.0146484375
40.9882528,-22.4658203125,-96.8896484375,40.6884765625
41.0282709,-23.1005859375,-98.2080078125,43.9111328125
41.0500894,-23.9794921875,-97.7685546875,40.2001953125
41.1003825,-24.9560546875,-98.7939453125,31.0693359375
41.1205629,-24.9072265625,-98.8427734375,19.7900390625
41.1353859,-24.9560546875,-98.9892578125,9.7314453125
41.1639683,-25.4443359375,-99.0380859375,2.6025390625
41.1936022,-25.2001953125,-98.6962890625,0.6982421875
41.2245781,-25.7373046875,-99.2822265625,1.1865234375
41.2551854,-26.4697265625,-99.1845703125,2.5048828125
41.2850847,-26.8115234375,-99.7705078125,2.1142578125
41.3139596,-28.3251953125,-100.9912109375,-1.2548828125
41.3633718,-28.2763671875,-101.1376953125,-4.6240234375
41.3764352,-29.3994140625,-101.6259765625,-8.7255859375
41.4075892,-30.4736328125,-102.1142578125,-13.1689453125
41.4333607,-30.5712890625,-102.6025390625,-17.9541015625
41.4928463,-31.7919921875,-102.4560546875,-22.7880859375
41.524283,-31.1572265625,-100.9912109375,-26.3525390625
41.5282811,-28.1298828125,-99.7216796875,-21.1279296875
41.5729646,-24.3212890625,-98.7939453125,1.7236328125
41.5937858,-22.8564453125,-98.3544921875,26.7236328125
41.6358247,-22.5146484375,-98.5986328125,41.7626953125
41.6558225,-22.8564453125,-98.7939453125,45.4736328125
41.6937664,-23.4912109375,-99.1357421875,41.1767578125
41.7137077,-23.8330078125,-99.6728515625,32.7783203125
41.7498466,-25.8349609375,-99.5751953125,20.7666015625
41.7697788,-25.8349609375,-99.7705078125,9.8291015625
41.8149767,-25.3955078125,-100.0146484375,3.2861328125
41.8248778,-25.1025390625,-99.8193359375,2.3583984375
41.8619735,-25.3955078125,-100.0634765625,3.3837890625
41.9031504,-26.1767578125,-100.3564453125,3.4814453125
41.9210599,-27.0556640625,-100.3564453125,2.7978515625
41.9500494,-26.9580078125,-101.3818359375,-1.0107421875
41.9780102,-28.2763671875,-101.7724609375,-4.8193359375
42.0080379,-29.0576171875,-101.8212890625,-8.6279296875
42.0549908,-29.5947265625,-102.6513671875,-13.8037109375
42.067943,-30.8642578125,-103.2373046875,-18.7353515625
42.1163671,-30.4248046875,-103.3837890625,-23.2763671875
42.1301045,-30.8154296875,-101.3818359375,-27.5732421875
42.1601997,-28.3251953125,-99.5751953125,-23.7646484375
42.2073332,-24.2724609375,-98.7939453125,-1.2060546875
42.2201295,-23.1982421875,-97.8662109375,26.0888671875
42.247146,-22.5146484375,-98.4033203125,43.3251953125
42.2842295,-23.3935546875,-98.3544921875,47.5244140625
42.3103036,-23.8330078125,-98.5498046875,44.0576171875
42.3411683,-24.1748046875,-99.7705078125,35.1708984375
42.3722055,-25.3955078125,-99.5263671875,23.4033203125
42.3982144,-25.7373046875,-100.0146484375,11.1962890625
42.4271212,-25.1025390625,-100.1123046875,3.8232421875
42.465393,-25.7373046875,-100.1123046875,0.6005859375
42.4902319,-25.5908203125,-100.7470703125,0.7470703125
42.5232295,-25.7861328125,-100.4052734375,1.3330078125
42.5494074,-26.8603515625,-101.3330078125,0.4541015625
42.5862611,-27.4951171875,-101.7236328125,-2.4267578125
42.6132249,-28.4716796875,-101.0888671875,-5.4541015625
42.6422738,-29.3994140625,-102.2607421875,-9.7021484375
42.6693924,-30.0830078125,-102.0654296875,-14.8291015625
42.7033136,-30.7177734375,-102.8955078125,-19.8583984375
42.7333035,-31.2060546875,-103.0419921875,-25.4248046875
42.7652764,-31.2060546875,-101.9189453125,-30.0146484375
42.7932758,-28.2275390625,-100.3076171875,-26.7431640625
42.8222701,-25.1513671875,-98.4521484375,-4.4775390625
42.8553264,-23.2470703125,-98.2080078125,23.6474609375
42.8842926,-22.0263671875,-98.5986328125,42.6416015625
42.9174851,-22.6611328125,-98.7451171875,48.9404296875
42.9454364,-23.0029296875,-98.8916015625,46.0107421875
42.9723629,-23.7353515625,-98.9892578125,37.6611328125
43.0023045,-24.6142578125,-99.3310546875,26.8212890625
43.0353053,-25.2001953125,-99.7705078125,15.0537109375
43.0643592,-24.8095703125,-99.8193359375,6.4111328125
43.0972782,-25.0537109375,-99.7216796875,2.1630859375
43.1253021,-25.2490234375,-99.2333984375,2.0654296875
43.1542898,-25.5908203125,-99.8681640625,2.0166015625
43.1874177,-26.1767578125,-99.9658203125,1.5283203125
43.2164372,-26.7626953125,-100.5517578125,-0.9619140625
43.2444796,-28.1298828125,-100.9912109375,-4.3310546875
43.2805168,-28.6669921875,-101.8701171875,-8.1884765625
43.3053553,-29.8388671875,-102.3583984375,-13.1201171875
43.3384819,-29.5458984375,-102.9443359375,-18.3935546875
43.3673328,-31.0107421875,-102.8466796875,-23.0810546875
43.3935905,-30.9130859375,-103.1884765625,-28.7939453125
43.4282343,-28.9599609375,-100.7470703125,-32.4072265625
43.4579786,-25.9326171875,-99.1357421875,-22.8857421875
43.4866144,-22.9052734375,-98.8916015625,4.7021484375
43.5179926,-21.7333984375,-98.2568359375,33.0224609375
43.5485098,-22.4658203125,-98.5009765625,49.5751953125
43.5786932,-22.2705078125,-98.9892578125,52.9443359375
43.6097808,-23.3447265625,-99.1845703125,47.8662109375
43.638208,-24.3701171875,-99.4287109375,38.6376953125
43.6715355,-24.8095703125,-99.0380859375,26.5771484375
43.6983059,-24.9560546875,-99.6240234375,15.0048828125
43.7275981,-24.5166015625,-99.5751953125,7.0947265625
43.7604149,-24.6142578125,-99.9169921875,4.5556640625
43.7932708,-25.3955078125,-100.3076171875,5.0439453125
43.8176259,-26.2255859375,-100.1611328125,4.8486328125
43.8498653,-26.8115234375,-100.3564453125,4.1162109375
43.880724,-27.0556640625,-100.9912109375,2.4560546875
43.9119333,-28.0810546875,-100.6494140625,-1.3525390625
43.9426147,-29.0576171875,-101.6748046875,-5.7958984375
43.9701648,-29.5947265625,-102.5537109375,-10.6298828125
44.0032788,-30.7177734375,-102.7001953125,-15.3662109375
44.0312868,-31.2548828125,-103.4326171875,-20.3466796875
44.0579691,-31.3525390625,-102.9931640625,-24.6435546875
44.0914683,-29.4482421875,-100.7470703125,-27.2314453125
44.1204576,-25.1025390625,-99.6240234375,-14.0478515625
44.1499431,-23.0029296875,-98.8916015625,14.3212890625
44.1821309,-22.1240234375,-98.6474609375,40.8837890625
44.2127008,-22.2705078125,-98.5986328125,53.4814453125
44.2436795,-22.7099609375,-98.7939453125,54.6044921875
44.2727726,-23.4423828125,-99.5751953125,48.0615234375
44.3001968,-24.4677734375,-99.9169921875,37.7587890625
44.3339521,-25.0537109375,-100.3564453125,24.5751953125
44.3620257,-24.9560546875,-100.5029296875,13.2958984375
